Data from Reflection__19__16-31-04-251.txt Node

Date: Wed Jul 02 16:31:04 BST 2025
User: Jamie
Spectrometer: HDX00312
Trigger mode: 0
Integration Time (sec): 6.900000E-2
Scans to average: 10
Nonlinearity correction enabled: true
Boxcar width: 0
Storing dark spectrum: false
XAxis mode: Wavelengths
Number of Pixels in Spectrum: 2068
>>>>>Begin Spectral Data<<<<<
196.211	30.00016
196.582	34.83172
196.954	54.8783
197.325	19.60794
197.696	38.13841
198.067	35.98705
198.438	32.72707
198.809	30.31293
199.18	28.76808
199.551	26.70552
199.922	27.64685
200.293	29.91823
200.663	28.2833
201.034	28.30802
201.404	31.8737
201.774	30.54994
202.144	30.09089
202.515	28.72222
202.885	27.40029
203.255	29.48352
203.625	30.17847
203.994	28.43628
204.364	29.59011
204.734	28.91855
205.103	24.70408
205.473	27.4675
205.842	26.39153
206.212	28.89968
206.581	27.56332
206.95	29.1313
207.319	26.82288
207.688	31.11054
208.057	27.67685
208.426	28.87733
208.795	28.48047
209.163	28.74929
209.532	29.00233
209.9	25.27489
210.269	30.67392
210.637	28.24815
211.005	27.63842
211.374	27.26859
211.742	28.95519
212.11	27.01515
212.478	26.43359
212.846	27.50364
213.213	27.20151
213.581	27.51042
213.949	28.42917
214.316	28.39935
214.684	30.68762
215.051	28.20328
215.418	26.99205
215.786	27.87226
216.153	27.64421
216.52	25.59852
216.887	24.74884
217.254	25.84656
217.62	27.1899
217.987	25.05372
218.354	24.93232
218.72	24.81223
219.087	26.35243
219.453	23.71247
219.819	25.379
220.186	24.59786
220.552	24.2862
220.918	24.27816
221.284	23.96809
221.65	22.68118
222.016	21.74988
222.381	22.67438
222.747	22.48165
223.113	22.1401
223.478	22.26921
223.844	21.84208
224.209	21.71229
224.574	22.24878
224.939	21.38405
225.304	20.16159
225.669	20.51793
226.034	20.99081
226.399	20.12619
226.764	20.09346
227.129	20.31215
227.493	19.78411
227.858	19.73982
228.222	20.05379
228.587	19.64929
228.951	19.61137
229.315	19.35144
229.679	19.21666
230.043	18.97343
230.407	19.14913
230.771	18.90852
231.135	18.45994
231.499	18.40141
231.862	18.55197
232.226	18.28427
232.589	18.06004
232.953	18.2301
233.316	17.98065
233.679	18.23979
234.042	17.9038
234.405	17.80117
234.768	17.84851
235.131	17.77699
235.494	17.74433
235.857	17.44586
236.22	17.38987
236.582	17.29182
236.945	17.44441
237.307	17.28717
237.669	17.273
238.032	17.26081
238.394	17.10176
238.756	17.07907
239.118	16.88211
239.48	17.03094
239.842	16.86839
240.204	16.90795
240.565	16.76872
240.927	16.55891
241.288	16.63526
241.65	16.52269
242.011	16.52358
242.373	16.4938
242.734	16.36382
243.095	16.31593
243.456	16.24455
243.817	16.23304
244.178	16.18813
244.539	16.07052
244.899	16.09364
245.26	15.92611
245.621	15.87135
245.981	15.80225
246.341	15.75693
246.702	15.73683
247.062	15.72242
247.422	15.59452
247.782	15.46402
248.142	15.53575
248.502	15.50406
248.862	15.35788
249.222	15.40909
249.582	15.41688
249.941	15.31776
250.301	15.24492
250.66	15.10723
251.02	15.08524
251.379	15.02191
251.738	14.96832
252.097	14.97373
252.456	14.91728
252.815	14.87657
253.174	14.92884
253.533	14.92125
253.892	14.94374
254.25	14.74704
254.609	14.77034
254.967	14.77129
255.326	14.74555
255.684	14.64745
256.042	14.53549
256.4	14.59493
256.759	14.5061
257.117	14.49411
257.474	14.47031
257.832	14.48112
258.19	14.41368
258.548	14.35286
258.905	14.39236
259.263	14.3744
259.62	14.29087
259.978	14.23404
260.335	14.2688
260.692	14.27645
261.049	14.25345
261.406	14.24041
261.763	14.12959
262.12	14.13561
262.477	14.11256
262.834	14.12408
263.19	14.05423
263.547	14.08181
263.904	14.00008
264.26	14.10477
264.616	14.08739
264.973	14.06928
265.329	14.02279
265.685	14.06227
266.041	14.01054
266.397	13.93412
266.753	13.96915
267.108	13.90382
267.464	13.9566
267.82	13.91534
268.175	13.8805
268.531	13.82273
268.886	13.94962
269.241	13.87598
269.597	13.91602
269.952	13.83289
270.307	13.78754
270.662	13.76716
271.017	13.79054
271.371	13.58946
271.726	13.72099
272.081	13.70107
272.435	13.68562
272.79	13.65967
273.144	13.58538
273.499	13.59039
273.853	13.63209
274.207	13.66093
274.561	13.59999
274.915	13.53561
275.269	13.53904
275.623	13.50735
275.977	13.47692
276.331	13.51922
276.684	13.44196
277.038	13.46848
277.391	13.49009
277.745	13.29081
278.098	13.28527
278.451	13.4076
278.804	13.37927
279.157	13.3786
279.51	13.30926
279.863	13.2728
280.216	13.31203
280.569	13.29653
280.922	13.1965
281.274	13.17813
281.627	13.15984
281.979	13.12088
282.332	13.01289
282.684	13.16811
283.036	13.09593
283.388	13.06011
283.74	13.0381
284.092	12.91243
284.444	12.97139
284.796	12.99096
285.148	12.94808
285.499	12.88596
285.851	12.92696
286.202	12.82166
286.554	12.85051
286.905	12.75821
287.257	12.81622
287.608	12.73631
287.959	12.69565
288.31	12.66455
288.661	12.62511
289.012	12.69139
289.362	12.60876
289.713	12.4918
290.064	12.57461
290.414	12.51529
290.765	12.47848
291.115	12.57438
291.466	12.51437
291.816	12.51129
292.166	12.44788
292.516	12.46143
292.866	12.38371
293.216	12.32558
293.566	12.3484
293.916	12.28591
294.265	12.28374
294.615	12.30903
294.964	12.28748
295.314	12.21303
295.663	12.19113
296.013	12.20815
296.362	12.13725
296.711	12.14971
297.06	12.08672
297.409	12.16874
297.758	12.13771
298.107	12.06061
298.455	12.08572
298.804	12.03855
299.153	12.11105
299.501	12.10995
299.85	12.0821
300.198	12.04121
300.546	12.08342
300.894	11.9674
301.243	12.01314
301.591	11.9082
301.939	11.94312
302.287	11.94096
302.634	11.86306
302.982	11.93452
303.33	11.91275
303.677	11.91571
304.025	11.91064
304.372	11.86849
304.72	11.80004
305.067	11.74262
305.414	11.75853
305.761	11.7258
306.108	11.77239
306.455	11.82423
306.802	11.75151
307.149	11.7426
307.495	11.65412
307.842	11.72942
308.189	11.67558
308.535	11.65894
308.882	11.64858
309.228	11.59449
309.574	11.56296
309.92	11.66844
310.266	11.64523
310.612	11.62309
310.958	11.56717
311.304	11.56627
311.65	11.56799
311.996	11.56815
312.341	11.50113
312.687	11.4461
313.032	11.45562
313.378	11.47722
313.723	11.47099
314.068	11.46272
314.413	11.4032
314.759	11.42129
315.104	11.33942
315.449	11.47427
315.793	11.398
316.138	11.45615
316.483	11.28475
316.827	11.37883
317.172	11.25594
317.516	11.31368
317.861	11.31945
318.205	11.3073
318.549	11.2862
318.894	11.19024
319.238	11.26828
319.582	11.23034
319.926	11.14988
320.269	11.21048
320.613	11.12129
320.957	11.2435
321.3	11.08477
321.644	11.19709
321.987	11.12943
322.331	11.11656
322.674	11.09496
323.017	11.07237
323.36	11.08699
323.704	11.07797
324.047	11.00901
324.389	10.96564
324.732	10.9878
325.075	11.0164
325.418	11.03477
325.76	10.92913
326.103	10.81995
326.445	10.92809
326.788	10.88417
327.13	10.85682
327.472	10.77519
327.814	10.91515
328.156	10.90397
328.498	10.93434
328.84	10.80804
329.182	10.76517
329.524	10.86181
329.866	10.79301
330.207	10.84013
330.549	10.80944
330.89	10.77018
331.231	10.76446
331.573	10.82431
331.914	10.68254
332.255	10.83248
332.596	10.6755
332.937	10.74918
333.278	10.70359
333.619	10.65348
333.96	10.70226
334.3	10.76539
334.641	10.70886
334.981	10.70456
335.322	10.52162
335.662	10.63701
336.003	10.5791
336.343	10.61176
336.683	10.60991
337.023	10.50419
337.363	10.68075
337.703	10.66293
338.043	10.6045
338.382	10.51087
338.722	10.58895
339.062	10.52467
339.401	10.5236
339.741	10.53202
340.08	10.49704
340.419	10.48745
340.759	10.51163
341.098	10.47527
341.437	10.52169
341.776	10.48096
342.115	10.43979
342.454	10.4602
342.792	10.50201
343.131	10.48475
343.47	10.48755
343.808	10.51145
344.147	10.43388
344.485	10.49916
344.823	10.45578
345.162	10.44305
345.5	10.46776
345.838	10.51638
346.176	10.49191
346.514	10.38166
346.851	10.37808
347.189	10.38737
347.527	10.36179
347.865	10.54434
348.202	10.33746
348.54	10.31489
348.877	10.41077
349.214	10.46825
349.551	10.37972
349.889	10.25436
350.226	10.3405
350.563	10.4269
350.9	10.41822
351.236	10.41427
351.573	10.32722
351.91	10.29527
352.247	10.24081
352.583	10.31825
352.92	10.41433
353.256	10.22825
353.592	10.27489
353.929	10.24299
354.265	10.32334
354.601	10.30354
354.937	10.3035
355.273	10.25135
355.609	10.23151
355.944	10.3007
356.28	10.21701
356.616	10.27696
356.951	10.28227
357.287	10.23059
357.622	10.23133
357.957	10.27927
358.293	10.29644
358.628	10.32961
358.963	10.30847
359.298	10.36927
359.633	10.27958
359.968	10.24184
360.303	10.18938
360.637	10.23588
360.972	10.23155
361.307	10.27551
361.641	10.30382
361.975	10.22751
362.31	10.32467
362.644	10.14997
362.978	10.19905
363.312	10.19119
363.646	10.23071
363.98	10.28069
364.314	10.33156
364.648	10.20449
364.982	10.21898
365.315	10.29197
365.649	10.21412
365.983	10.24608
366.316	10.22355
366.649	10.3061
366.983	10.16964
367.316	10.20275
367.649	10.1703
367.982	10.19597
368.315	10.17547
368.648	10.20131
368.981	10.27913
369.313	10.24738
369.646	10.27845
369.979	10.22392
370.311	10.17308
370.644	10.19779
370.976	10.13398
371.308	10.29537
371.641	10.13662
371.973	10.15364
372.305	10.25112
372.637	10.18107
372.969	10.28108
373.301	10.27319
373.632	10.13589
373.964	10.29571
374.296	10.16436
374.627	10.23666
374.959	10.16517
375.29	10.22485
375.621	10.17931
375.953	10.12271
376.284	10.21261
376.615	10.14892
376.946	10.14808
377.277	10.18091
377.608	10.18561
377.939	10.19954
378.269	10.17813
378.6	10.18181
378.931	10.06717
379.261	10.16916
379.591	10.10693
379.922	10.14782
380.252	10.08398
380.582	10.14482
380.912	10.1402
381.242	10.08492
381.572	10.12027
381.902	10.0489
382.232	10.11613
382.562	10.16546
382.891	10.11458
383.221	10.18827
383.551	10.04952
383.88	10.10116
384.209	10.08361
384.539	10.11026
384.868	10.07022
385.197	10.04168
385.526	10.05863
385.855	10.14685
386.184	10.22928
386.513	10.11648
386.842	10.06974
387.17	10.18819
387.499	10.08015
387.828	10.12719
388.156	10.13544
388.484	10.13634
388.813	10.13378
389.141	10.02832
389.469	10.04004
389.797	10.07869
390.125	10.14665
390.453	10.1066
390.781	10.07073
391.109	10.08428
391.437	10.1038
391.764	9.9693
392.092	10.14295
392.419	10.0556
392.747	10.20464
393.074	10.19478
393.401	10.1086
393.729	10.07397
394.056	10.07183
394.383	10.15796
394.71	10.08908
395.037	10.1526
395.363	10.18888
395.69	10.11159
396.017	10.11262
396.344	10.12693
396.67	10.14471
396.997	10.0534
397.323	10.08675
397.649	10.14794
397.975	10.18201
398.302	10.23097
398.628	10.1431
398.954	10.18814
399.28	10.13596
399.606	10.11305
399.931	10.24721
400.257	10.21309
400.583	10.19096
400.908	10.20453
401.234	10.25235
401.559	10.2735
401.884	10.18599
402.21	10.23392
402.535	10.17571
402.86	10.2137
403.185	10.13857
403.51	10.26616
403.835	10.26725
404.16	10.18495
404.485	10.2729
404.809	10.18883
405.134	10.28414
405.458	10.31205
405.783	10.34325
406.107	10.26079
406.432	10.37134
406.756	10.46134
407.08	10.37722
407.404	10.31977
407.728	10.40837
408.052	10.47355
408.376	10.40511
408.7	10.33726
409.023	10.43841
409.347	10.35316
409.671	10.28281
409.994	10.45825
410.317	10.38465
410.641	10.34269
410.964	10.46884
411.287	10.37794
411.61	10.27794
411.933	10.40031
412.256	10.48271
412.579	10.41843
412.902	10.51097
413.225	10.47259
413.548	10.41904
413.87	10.6422
414.193	10.62499
414.515	10.48911
414.838	10.38079
415.16	10.52749
415.482	10.5604
415.804	10.58757
416.126	10.67499
416.448	10.54953
416.77	10.71055
417.092	10.46338
417.414	10.50137
417.736	10.50113
418.057	10.62604
418.379	10.55848
418.701	10.76271
419.022	10.59549
419.343	10.53983
419.665	10.63124
419.986	10.65731
420.307	10.64559
420.628	10.65894
420.949	10.58174
421.27	10.59535
421.591	10.62437
421.912	10.63168
422.232	10.56332
422.553	10.76171
422.873	10.67006
423.194	10.83866
423.514	10.75854
423.835	10.74251
424.155	10.75979
424.475	10.77851
424.795	10.85211
425.115	10.68514
425.435	10.82794
425.755	10.89969
426.075	11.00153
426.395	10.91439
426.714	10.81544
427.034	10.86774
427.354	10.78561
427.673	10.87789
427.992	10.81429
428.312	11.06953
428.631	10.88586
428.95	10.93401
429.269	10.87395
429.588	10.77967
429.907	10.77532
430.226	11.02796
430.545	11.03247
430.864	10.71026
431.182	10.93648
431.501	10.94772
431.819	10.89405
432.138	11.04942
432.456	11.06018
432.774	11.11683
433.093	10.90764
433.411	11.15837
433.729	11.07489
434.047	10.98142
434.365	11.09509
434.683	11.00234
435	10.99833
435.318	11.12205
435.636	11.03362
435.953	11.12797
436.271	11.1182
436.588	11.03853
436.906	10.94885
437.223	11.15399
437.54	11.0139
437.857	11.15843
438.174	11.08481
438.491	11.12786
438.808	11.05993
439.125	11.45411
439.442	11.29929
439.758	11.08114
440.075	11.1036
440.392	11.17815
440.708	11.13796
441.024	10.8968
441.341	10.99898
441.657	11.00298
441.973	11.23709
442.289	11.10542
442.605	11.23394
442.921	11.26187
443.237	11.12515
443.553	11.17537
443.869	11.19716
444.184	11.18418
444.5	11.3743
444.816	11.30902
445.131	11.26573
445.446	10.98094
445.762	11.09997
446.077	11.36117
446.392	11.20986
446.707	11.27014
447.022	11.41022
447.337	11.10205
447.652	11.31457
447.967	11.30211
448.282	11.19016
448.596	11.12787
448.911	11.21586
449.225	11.22645
449.54	11.44042
449.854	11.52647
450.169	11.42681
450.483	11.30088
450.797	11.27204
451.111	11.40214
451.425	11.23014
451.739	11.2987
452.053	11.22696
452.367	11.31937
452.68	11.21101
452.994	11.36336
453.308	11.3184
453.621	11.44696
453.935	11.35342
454.248	11.25965
454.561	11.2696
454.874	11.29206
455.188	11.34407
455.501	11.23162
455.814	11.24657
456.127	11.29158
456.44	11.35137
456.752	11.30134
457.065	11.287
457.378	11.24894
457.69	11.28197
458.003	11.36759
458.315	11.14573
458.628	11.29004
458.94	11.25267
459.252	11.23872
459.564	11.33558
459.876	11.47408
460.188	11.17404
460.5	11.24093
460.812	11.25752
461.124	11.15791
461.436	11.15046
461.747	11.33624
462.059	11.09571
462.37	11.16563
462.682	11.19617
462.993	11.21981
463.304	11.18091
463.616	11.27145
463.927	11.28742
464.238	11.25852
464.549	11.32766
464.86	11.07363
465.171	11.17328
465.481	11.19036
465.792	11.20488
466.103	11.10101
466.413	11.21603
466.724	11.15199
467.034	11.11831
467.345	11.05001
467.655	11.18014
467.965	11.18017
468.275	11.27702
468.585	11.14077
468.895	10.99701
469.205	11.18147
469.515	11.27343
469.825	11.18342
470.135	11.23376
470.444	11.12551
470.754	11.208
471.063	11.16004
471.373	11.19142
471.682	11.28853
471.991	11.13891
472.301	11.15704
472.61	11.29953
472.919	11.14816
473.228	11.31443
473.537	11.08308
473.846	11.16949
474.155	11.14888
474.463	11.30004
474.772	11.08158
475.08	11.10094
475.389	11.28198
475.697	11.2503
476.006	11.09938
476.314	11.13619
476.622	11.12213
476.93	11.09077
477.239	11.00657
477.547	11.21296
477.855	11.13217
478.162	11.15165
478.47	11.17694
478.778	11.2539
479.086	11.08356
479.393	11.20321
479.701	11.21283
480.008	11.17792
480.315	11.20802
480.623	11.18296
480.93	11.18964
481.237	11.17019
481.544	11.21475
481.851	11.18522
482.158	11.27215
482.465	11.14689
482.772	11.18582
483.079	11.2898
483.385	11.19719
483.692	11.28099
483.998	11.18871
484.305	11.15358
484.611	11.18012
484.918	11.1754
485.224	11.22557
485.53	11.24589
485.836	11.24629
486.142	11.19031
486.448	11.29588
486.754	11.17114
487.06	11.21327
487.366	11.15584
487.671	11.20259
487.977	11.19892
488.282	11.2627
488.588	11.16606
488.893	11.26067
489.199	11.21041
489.504	11.30398
489.809	11.31623
490.114	11.37527
490.419	11.20262
490.724	11.27344
491.029	11.34112
491.334	11.30894
491.639	11.26661
491.943	11.3661
492.248	11.42174
492.553	11.3538
492.857	11.34802
493.162	11.40316
493.466	11.49466
493.77	11.36423
494.074	11.49586
494.378	11.45387
494.683	11.52554
494.987	11.53113
495.29	11.4338
495.594	11.50937
495.898	11.5485
496.202	11.56301
496.505	11.59299
496.809	11.56315
497.113	11.65931
497.416	11.76734
497.719	11.73194
498.023	11.80343
498.326	11.61242
498.629	11.7785
498.932	11.74932
499.235	11.70531
499.538	11.86085
499.841	11.80671
500.144	11.80849
500.446	11.91438
500.749	11.93304
501.052	11.86618
501.354	12.00939
501.657	12.01785
501.959	11.95702
502.261	11.98932
502.564	12.0349
502.866	12.02457
503.168	12.21662
503.47	12.17999
503.772	12.17801
504.074	12.28201
504.376	12.32165
504.677	12.29385
504.979	12.33459
505.281	12.46963
505.582	12.50175
505.884	12.50645
506.185	12.59629
506.486	12.67449
506.788	12.61412
507.089	12.57423
507.39	12.65415
507.691	12.67453
507.992	12.75077
508.293	12.79643
508.594	12.82943
508.895	12.86744
509.195	13.02468
509.496	12.9624
509.797	13.02858
510.097	13.19397
510.398	13.20349
510.698	13.19988
510.998	13.28105
511.298	13.33826
511.599	13.50054
511.899	13.48719
512.199	13.53737
512.499	13.62808
512.799	13.62168
513.098	13.6228
513.398	13.76295
513.698	13.71491
513.997	13.95128
514.297	14.05482
514.596	14.03298
514.896	14.12312
515.195	14.08762
515.494	14.18318
515.794	14.32449
516.093	14.4105
516.392	14.5348
516.691	14.52365
516.99	14.78333
517.288	14.66089
517.587	14.78652
517.886	14.84844
518.185	14.89274
518.483	15.00774
518.782	15.0722
519.08	15.19322
519.378	15.36686
519.677	15.36226
519.975	15.46937
520.273	15.52103
520.571	15.57998
520.869	15.68217
521.167	15.67277
521.465	15.90239
521.763	15.72032
522.061	16.06574
522.358	16.13189
522.656	16.24581
522.953	16.12464
523.251	16.27729
523.548	16.27077
523.846	16.30591
524.143	16.49765
524.44	16.58058
524.737	16.59993
525.034	16.69343
525.331	16.70541
525.628	16.75474
525.925	16.8096
526.222	16.88755
526.518	16.86079
526.815	16.94336
527.112	17.0016
527.408	17.26007
527.705	17.07955
528.001	17.06802
528.297	17.15769
528.593	17.21625
528.89	17.16167
529.186	17.37338
529.482	17.26682
529.778	17.31397
530.074	17.34659
530.369	17.35846
530.665	17.38411
530.961	17.46527
531.256	17.38176
531.552	17.50501
531.847	17.48994
532.143	17.63498
532.438	17.48797
532.733	17.50093
533.029	17.52785
533.324	17.40023
533.619	17.43914
533.914	17.42488
534.209	17.45582
534.504	17.49701
534.798	17.40913
535.093	17.44964
535.388	17.27337
535.682	17.40542
535.977	17.42274
536.271	17.38238
536.566	17.29565
536.86	17.34569
537.154	17.26175
537.448	17.33724
537.742	17.24257
538.037	17.1976
538.33	17.30807
538.624	17.30642
538.918	17.31627
539.212	17.16751
539.506	17.26357
539.799	17.30471
540.093	17.28887
540.386	17.30981
540.68	17.30134
540.973	17.25404
541.266	17.22026
541.56	17.17222
541.853	17.19696
542.146	17.38424
542.439	17.37876
542.732	17.41951
543.025	17.47851
543.318	17.51309
543.61	17.48228
543.903	17.67885
544.196	17.50875
544.488	17.56404
544.781	17.51757
545.073	17.61831
545.365	17.62379
545.658	17.73615
545.95	17.81442
546.242	17.73524
546.534	17.84824
546.826	17.79995
547.118	17.8566
547.41	17.94955
547.702	18.02073
547.993	17.98054
548.285	17.93779
548.577	18.12087
548.868	18.16964
549.16	18.1959
549.451	18.1255
549.742	18.22514
550.034	18.28955
550.325	18.33143
550.616	18.34455
550.907	18.46806
551.198	18.43874
551.489	18.4821
551.78	18.52044
552.07	18.51452
552.361	18.63226
552.652	18.39559
552.942	18.54442
553.233	18.68349
553.523	18.74154
553.814	18.69949
554.104	18.71924
554.394	18.70891
554.684	18.79127
554.975	18.74856
555.265	18.87068
555.555	18.90578
555.845	18.85348
556.134	18.75455
556.424	18.91279
556.714	18.88896
557.003	18.88991
557.293	18.82684
557.583	18.94745
557.872	18.85437
558.161	18.88017
558.451	18.94184
558.74	18.9873
559.029	18.99253
559.318	18.97644
559.607	18.90801
559.896	18.95289
560.185	18.91038
560.474	18.91548
560.763	18.95014
561.051	18.9138
561.34	18.82121
561.629	18.89272
561.917	18.84456
562.205	18.94503
562.494	18.87322
562.782	18.91747
563.07	18.92234
563.359	18.85703
563.647	18.80509
563.935	18.81709
564.223	18.82309
564.51	18.77725
564.798	18.77676
565.086	18.79951
565.374	18.72737
565.661	18.66846
565.949	18.72103
566.236	18.68556
566.524	18.66008
566.811	18.62579
567.099	18.64099
567.386	18.59836
567.673	18.69161
567.96	18.73445
568.247	18.61863
568.534	18.54568
568.821	18.514
569.108	18.51617
569.394	18.58496
569.681	18.4508
569.968	18.42993
570.254	18.52417
570.541	18.37037
570.827	18.36892
571.114	18.3615
571.4	18.51407
571.686	18.37259
571.972	18.32634
572.258	18.36731
572.544	18.21945
572.83	18.20877
573.116	18.36557
573.402	18.22711
573.688	18.29255
573.973	18.21288
574.259	18.2986
574.545	18.22971
574.83	18.21952
575.116	18.33779
575.401	18.15732
575.686	18.2635
575.971	18.13395
576.257	18.19074
576.542	18.10469
576.827	18.03485
577.112	18.08385
577.397	18.03698
577.681	18.05453
577.966	18.00692
578.251	18.0699
578.536	18.01002
578.82	18.01895
579.105	17.96439
579.389	17.98651
579.673	18.01198
579.958	17.89885
580.242	17.87226
580.526	17.84405
580.81	17.79937
581.094	17.89889
581.378	17.85145
581.662	17.80546
581.946	17.82345
582.23	17.71144
582.513	17.7191
582.797	17.73574
583.081	17.63879
583.364	17.73597
583.648	17.83161
583.931	17.68652
584.214	17.61399
584.498	17.72127
584.781	17.56149
585.064	17.56137
585.347	17.64063
585.63	17.53504
585.913	17.51401
586.196	17.43802
586.478	17.44101
586.761	17.48716
587.044	17.50106
587.326	17.38373
587.609	17.40939
587.891	17.38144
588.174	17.34454
588.456	17.31207
588.738	17.26594
589.02	17.31426
589.303	17.32582
589.585	17.29827
589.867	17.21792
590.149	17.13156
590.43	17.22849
590.712	17.1447
590.994	17.16169
591.276	17.25256
591.557	17.16644
591.839	17.13446
592.12	17.11482
592.402	17.06132
592.683	17.06816
592.964	16.91892
593.245	16.96008
593.527	16.97727
593.808	16.94917
594.089	16.92024
594.37	16.97311
594.65	16.92796
594.931	16.85978
595.212	16.85293
595.493	16.81381
595.773	16.87503
596.054	16.8336
596.334	16.73466
596.615	16.79677
596.895	16.71571
597.175	16.7957
597.456	16.66549
597.736	16.67786
598.016	16.62148
598.296	16.53006
598.576	16.64847
598.856	16.58906
599.136	16.51418
599.415	16.57354
599.695	16.4448
599.975	16.43663
600.254	16.53943
600.534	16.42007
600.813	16.40639
601.093	16.2993
601.372	16.2963
601.651	16.27775
601.93	16.3614
602.209	16.21145
602.488	16.24721
602.767	16.13283
603.046	16.1496
603.325	16.0382
603.604	16.14095
603.883	16.00599
604.161	16.03532
604.44	15.9323
604.718	15.89449
604.997	15.972
605.275	15.83099
605.554	15.78572
605.832	15.76099
606.11	15.74703
606.388	15.70508
606.666	15.64983
606.944	15.60614
607.222	15.68378
607.5	15.52721
607.778	15.53443
608.056	15.50801
608.333	15.57508
608.611	15.4834
608.889	15.36425
609.166	15.34267
609.444	15.2783
609.721	15.24062
609.998	15.28039
610.275	15.22595
610.553	15.25768
610.83	15.23759
611.107	15.23728
611.384	15.10716
611.661	15.13444
611.937	15.11553
612.214	15.07426
612.491	15.0761
612.768	15.07282
613.044	15.09336
613.321	15.0522
613.597	15.01824
613.874	14.97273
614.15	14.92967
614.426	14.9019
614.702	14.86958
614.978	14.84934
615.255	14.93167
615.531	14.89578
615.806	14.82035
616.082	14.86607
616.358	14.80859
616.634	14.73199
616.91	14.73964
617.185	14.80583
617.461	14.68187
617.736	14.7088
618.012	14.72044
618.287	14.72847
618.562	14.70609
618.838	14.61548
619.113	14.70137
619.388	14.72262
619.663	14.71056
619.938	14.67773
620.213	14.72506
620.488	14.72684
620.762	14.66861
621.037	14.65239
621.312	14.68
621.586	14.65477
621.861	14.66788
622.135	14.65119
622.41	14.70365
622.684	14.6586
622.958	14.65736
623.233	14.64279
623.507	14.68142
623.781	14.687
624.055	14.7216
624.329	14.67803
624.603	14.72909
624.876	14.69989
625.15	14.67914
625.424	14.64102
625.698	14.70256
625.971	14.65927
626.245	14.80572
626.518	14.69017
626.791	14.78286
627.065	14.73192
627.338	14.74751
627.611	14.75776
627.884	14.74334
628.157	14.75737
628.43	14.65678
628.703	14.79498
628.976	14.67808
629.249	14.78015
629.522	14.68752
629.794	14.76407
630.067	14.67854
630.339	14.78833
630.612	14.71431
630.884	14.73027
631.157	14.71241
631.429	14.71165
631.701	14.62724
631.973	14.6623
632.245	14.58912
632.518	14.63187
632.789	14.54584
633.061	14.64958
633.333	14.64854
633.605	14.56552
633.877	14.56602
634.148	14.54913
634.42	14.42994
634.691	14.47655
634.963	14.47091
635.234	14.4312
635.506	14.44051
635.777	14.35753
636.048	14.36293
636.319	14.31527
636.59	14.23289
636.861	14.26164
637.132	14.18509
637.403	14.13334
637.674	14.15184
637.945	14.05499
638.216	13.9387
638.486	13.95294
638.757	13.95874
639.027	13.86887
639.298	13.80771
639.568	13.79872
639.838	13.76559
640.109	13.71753
640.379	13.66947
640.649	13.62042
640.919	13.52489
641.189	13.50871
641.459	13.49939
641.729	13.4639
641.999	13.41112
642.269	13.3439
642.538	13.31956
642.808	13.24691
643.077	13.23306
643.347	13.13436
643.616	13.09816
643.886	13.06051
644.155	13.11828
644.424	12.97232
644.693	12.92755
644.963	12.96068
645.232	12.88223
645.501	12.83052
645.77	12.84436
646.038	12.82547
646.307	12.72185
646.576	12.6932
646.845	12.68188
647.113	12.59978
647.382	12.61323
647.65	12.58059
647.919	12.54031
648.187	12.54908
648.455	12.44655
648.724	12.52003
648.992	12.48666
649.26	12.40058
649.528	12.39124
649.796	12.39999
650.064	12.30646
650.332	12.30161
650.6	12.32999
650.867	12.27731
651.135	12.30318
651.403	12.21132
651.67	12.21751
651.938	12.22127
652.205	12.20503
652.473	12.20016
652.74	12.16043
653.007	12.22184
653.274	12.15659
653.541	12.12426
653.808	12.06474
654.075	12.11543
654.342	12.04722
654.609	12.0472
654.876	11.98854
655.143	11.99476
655.409	11.93402
655.676	11.95712
655.943	11.89076
656.209	11.91523
656.475	11.84356
656.742	11.82256
657.008	11.76868
657.274	11.77831
657.541	11.7462
657.807	11.72789
658.073	11.68901
658.339	11.67526
658.605	11.63676
658.871	11.57442
659.136	11.51077
659.402	11.48768
659.668	11.49028
659.933	11.45609
660.199	11.44624
660.464	11.37182
660.73	11.34471
660.995	11.23471
661.261	11.26565
661.526	11.2582
661.791	11.18866
662.056	11.16781
662.321	11.10139
662.586	11.09549
662.851	10.98642
663.116	10.96388
663.381	10.93031
663.646	10.94712
663.91	10.89085
664.175	10.87256
664.439	10.85132
664.704	10.76241
664.968	10.78549
665.233	10.83214
665.497	10.68425
665.761	10.67599
666.025	10.69511
666.29	10.64946
666.554	10.64662
666.818	10.62839
667.082	10.61397
667.345	10.61658
667.609	10.53775
667.873	10.52119
668.137	10.46481
668.4	10.48982
668.664	10.47238
668.927	10.43987
669.191	10.43227
669.454	10.35995
669.718	10.44563
669.981	10.43958
670.244	10.3808
670.507	10.36386
670.77	10.40279
671.033	10.37975
671.296	10.35309
671.559	10.33129
671.822	10.34588
672.085	10.36224
672.348	10.3439
672.61	10.35056
672.873	10.38629
673.135	10.41774
673.398	10.39185
673.66	10.46221
673.922	10.34168
674.185	10.31987
674.447	10.37037
674.709	10.3643
674.971	10.37073
675.233	10.41892
675.495	10.35279
675.757	10.3422
676.019	10.43369
676.281	10.42624
676.542	10.40406
676.804	10.44699
677.066	10.45889
677.327	10.43415
677.589	10.44251
677.85	10.5279
678.112	10.4875
678.373	10.59705
678.634	10.53576
678.895	10.59159
679.156	10.59933
679.417	10.59947
679.678	10.58294
679.939	10.54516
680.2	10.73059
680.461	10.74494
680.722	10.79553
680.982	10.7793
681.243	10.83782
681.504	10.85561
681.764	10.91203
682.025	10.90411
682.285	11.04086
682.545	11.02006
682.806	11.01124
683.066	11.15192
683.326	11.1504
683.586	11.22992
683.846	11.29532
684.106	11.34846
684.366	11.45682
684.626	11.54144
684.885	11.61555
685.145	11.70533
685.405	11.75508
685.664	11.88787
685.924	11.97794
686.183	12.07019
686.443	12.19142
686.702	12.2847
686.961	12.44613
687.221	12.52593
687.48	12.62084
687.739	12.81923
687.998	12.95645
688.257	13.08536
688.516	13.23092
688.775	13.29192
689.033	13.48001
689.292	13.65341
689.551	13.84918
689.809	13.95996
690.068	14.14639
690.326	14.36542
690.585	14.44294
690.843	14.68429
691.102	14.82672
691.36	15.08447
691.618	15.26938
691.876	15.49462
692.134	15.63864
692.392	15.8909
692.65	16.12787
692.908	16.28247
693.166	16.55279
693.424	16.69545
693.681	16.98663
693.939	17.20287
694.197	17.38563
694.454	17.63097
694.712	17.82693
694.969	18.06466
695.226	18.32233
695.484	18.5093
695.741	18.66064
695.998	19.00215
696.255	19.19413
696.512	19.37787
696.769	19.58948
697.026	19.81269
697.283	20.0325
697.54	20.30185
697.796	20.58745
698.053	20.76865
698.31	20.99256
698.566	21.2267
698.823	21.42638
699.079	21.73061
699.336	22.01604
699.592	22.04657
699.848	22.33924
700.104	22.60757
700.361	22.93736
700.617	23.04118
700.873	23.29932
701.129	23.52684
701.384	23.77475
701.64	23.95629
701.896	24.12945
702.152	24.53391
702.407	24.64043
702.663	24.92626
702.919	25.11506
703.174	25.26053
703.43	25.56799
703.685	25.74285
703.94	26.00986
704.195	26.18643
704.451	26.35823
704.706	26.60477
704.961	26.66294
705.216	26.91377
705.471	27.12078
705.726	27.27778
705.98	27.49029
706.235	27.58456
706.49	27.81839
706.745	27.99512
706.999	28.2992
707.254	28.34548
707.508	28.75575
707.762	28.72781
708.017	28.99075
708.271	29.11567
708.525	29.25618
708.779	29.41926
709.034	29.53568
709.288	29.65233
709.542	29.92516
709.796	30.07521
710.049	30.05602
710.303	30.28676
710.557	30.39717
710.811	30.60202
711.064	30.64329
711.318	30.76834
711.571	30.9317
711.825	30.97931
712.078	31.0962
712.331	31.20405
712.585	31.44015
712.838	31.44054
713.091	31.54601
713.344	31.71212
713.597	31.97903
713.85	32.00182
714.103	31.92949
714.356	32.15133
714.609	32.15354
714.862	32.37958
715.114	32.40215
715.367	32.537
715.619	32.51037
715.872	32.64534
716.124	32.5885
716.377	32.91587
716.629	32.94704
716.881	33.02094
717.133	33.09442
717.386	33.08718
717.638	33.19627
717.89	33.37963
718.142	33.39831
718.394	33.48095
718.645	33.51949
718.897	33.5436
719.149	33.61414
719.401	33.6352
719.652	33.7934
719.904	33.68895
720.155	33.76468
720.407	33.82495
720.658	33.82021
720.909	33.8473
721.161	34.04434
721.412	34.07923
721.663	34.13857
721.914	34.04429
722.165	34.17622
722.416	34.29804
722.667	34.13095
722.918	34.26728
723.169	34.23219
723.419	34.48897
723.67	34.32929
723.921	34.52789
724.171	34.5173
724.422	34.56939
724.672	34.63524
724.922	34.73267
725.173	34.62023
725.423	34.63934
725.673	34.75484
725.923	34.75119
726.173	34.8257
726.423	34.82761
726.673	35.00553
726.923	34.98526
727.173	34.9404
727.423	34.93541
727.673	35.0199
727.922	35.04534
728.172	35.04645
728.421	34.98258
728.671	35.05601
728.92	35.05314
729.17	35.16553
729.419	35.11701
729.668	35.07132
729.918	35.33701
730.167	35.27655
730.416	35.32422
730.665	35.33267
730.914	35.35531
731.163	35.1718
731.411	35.24586
731.66	35.26063
731.909	35.29705
732.158	35.38042
732.406	35.30656
732.655	35.41996
732.903	35.40838
733.152	35.33059
733.4	35.41056
733.648	35.50703
733.897	35.47369
734.145	35.50145
734.393	35.50196
734.641	35.54839
734.889	35.42496
735.137	35.63059
735.385	35.56374
735.633	35.61284
735.881	35.56098
736.129	35.77515
736.376	35.5666
736.624	35.5716
736.871	35.7079
737.119	35.66404
737.366	35.78575
737.614	35.76644
737.861	35.76848
738.108	35.7055
738.356	35.74698
738.603	35.81477
738.85	35.82399
739.097	35.7802
739.344	35.79565
739.591	35.84201
739.838	35.87351
740.084	35.83687
740.331	35.74957
740.578	35.64911
740.825	35.89288
741.071	35.70783
741.318	35.84606
741.564	35.86496
741.811	35.87758
742.057	35.80122
742.303	35.75346
742.549	35.84875
742.796	35.85015
743.042	36.0188
743.288	35.95263
743.534	35.82879
743.78	36.07657
744.026	35.93695
744.271	36.04796
744.517	35.92406
744.763	35.97676
745.009	36.03944
745.254	36.01758
745.5	36.02971
745.745	36.00948
745.991	35.94679
746.236	36.07623
746.481	35.98217
746.727	36.0495
746.972	36.13518
747.217	36.13876
747.462	36.08663
747.707	36.04126
747.952	36.14165
748.197	36.11367
748.442	36.15435
748.686	36.08549
748.931	36.08812
749.176	36.20611
749.421	36.05484
749.665	36.01325
749.91	36.09919
750.154	36.06296
750.398	36.13741
750.643	36.08435
750.887	36.12715
751.131	35.99332
751.375	36.11488
751.62	36.1312
751.864	36.08739
752.108	36.07651
752.351	36.02324
752.595	36.02238
752.839	35.94478
753.083	35.99724
753.327	36.01422
753.57	36.02755
753.814	36.03679
754.057	36.0712
754.301	36.06891
754.544	36.0004
754.788	36.15204
755.031	36.08304
755.274	36.10872
755.517	36.06323
755.761	36.06497
756.004	36.13564
756.247	36.07681
756.49	36.00029
756.732	35.9828
756.975	36.09127
757.218	36.14929
757.461	36.20448
757.704	36.00207
757.946	35.97077
758.189	36.00255
758.431	36.04023
758.674	36.04564
758.916	36.06583
759.158	36.05597
759.401	36.03091
759.643	35.86563
759.885	36.04293
760.127	36.14475
760.369	36.1187
760.611	35.87989
760.853	36.04404
761.095	35.88599
761.337	36.06797
761.579	36.1315
761.82	35.97991
762.062	36.15972
762.304	36.00209
762.545	36.02271
762.787	36.08387
763.028	36.00865
763.269	35.99266
763.511	35.95058
763.752	35.95428
763.993	36.00301
764.234	36.02004
764.475	36.09191
764.716	36.08244
764.957	36.0134
765.198	35.98392
765.439	36.02787
765.68	36.04321
765.921	36.07139
766.161	35.94654
766.402	36.06565
766.643	35.96671
766.883	36.01666
767.124	36.04998
767.364	36.08853
767.604	35.94306
767.845	35.98047
768.085	35.99521
768.325	36.0167
768.565	35.99029
768.805	35.87013
769.045	35.90971
769.285	35.95057
769.525	36.02399
769.765	36.00036
770.005	35.97994
770.244	35.97751
770.484	36.01151
770.724	35.87961
770.963	36.0306
771.203	36.00727
771.442	36.02878
771.682	36.04392
771.921	36.01678
772.16	35.92231
772.399	36.04257
772.639	36.00693
772.878	35.96764
773.117	35.92103
773.356	36.05648
773.595	36.07019
773.834	35.96995
774.072	35.85185
774.311	35.96355
774.55	35.97078
774.789	36.00028
775.027	36.1342
775.266	35.90199
775.504	35.84192
775.743	35.93654
775.981	36.02563
776.219	35.88042
776.458	36.07502
776.696	36.07098
776.934	36.00847
777.172	35.96529
777.41	35.90882
777.648	35.92598
777.886	35.94742
778.124	36.04973
778.362	35.91607
778.6	35.82193
778.837	35.84503
779.075	35.86889
779.313	35.74851
779.55	35.83804
779.788	35.97489
780.025	35.89808
780.262	35.84132
780.5	35.85909
780.737	35.91388
780.974	35.92498
781.211	35.91387
781.449	36.02588
781.686	35.85431
781.923	35.86274
782.159	35.84323
782.396	35.88644
782.633	35.83232
782.87	35.90585
783.107	35.85425
783.343	35.82903
783.58	35.87035
783.816	35.93922
784.053	35.9327
784.289	35.80143
784.526	35.89437
784.762	35.91083
784.998	35.8672
785.235	35.86116
785.471	35.93018
785.707	35.88789
785.943	35.76378
786.179	35.70359
786.415	35.72771
786.651	35.8479
786.887	35.83051
787.122	35.85734
787.358	35.83486
787.594	35.8177
787.829	35.8497
788.065	35.87997
788.3	35.7975
788.536	35.79943
788.771	35.85042
789.006	35.80432
789.242	35.79006
789.477	35.72737
789.712	35.84093
789.947	35.74497
790.182	35.84406
790.417	35.89022
790.652	35.7184
790.887	35.78552
791.122	35.85581
791.357	35.82316
791.591	35.64594
791.826	35.78068
792.061	35.75842
792.295	35.81732
792.53	35.75423
792.764	35.76855
792.999	35.75738
793.233	35.84476
793.467	35.71251
793.701	35.75325
793.936	35.79946
794.17	35.79103
794.404	35.82301
794.638	35.81137
794.872	35.71489
795.106	35.90648
795.34	35.69646
795.573	35.83449
795.807	35.61925
796.041	35.74899
796.274	35.68609
796.508	35.77407
796.741	35.57331
796.975	35.63403
797.208	35.65142
797.442	35.65404
797.675	35.73823
797.908	35.78277
798.141	35.72585
798.375	35.65132
798.608	35.86983
798.841	35.64081
799.074	35.68305
799.306	35.83707
799.539	35.78042
799.772	35.80984
800.005	35.81906
800.238	35.7233
800.47	35.64613
800.703	35.77512
800.935	35.61131
801.168	35.71469
801.4	35.60236
801.633	35.72951
801.865	35.73007
802.097	35.65517
802.329	35.75041
802.562	35.66844
802.794	35.75649
803.026	35.82441
803.258	35.58026
803.49	35.7762
803.721	35.77548
803.953	35.80544
804.185	35.80263
804.417	35.60289
804.648	35.64382
804.88	35.57335
805.112	35.72389
805.343	35.48986
805.575	35.76155
805.806	35.72529
806.037	35.73789
806.269	35.60776
806.5	35.64449
806.731	35.53013
806.962	35.65712
807.193	35.82056
807.424	35.78405
807.655	36.02372
807.886	36.8821
808.117	44.09159
808.348	73.94987
808.578	47.93426
