Data from Reflection__5__15-53-06-630.txt Node

Date: Wed Jul 02 15:53:06 BST 2025
User: Jamie
Spectrometer: HDX00312
Trigger mode: 0
Integration Time (sec): 6.900000E-2
Scans to average: 10
Nonlinearity correction enabled: true
Boxcar width: 0
Storing dark spectrum: false
XAxis mode: Wavelengths
Number of Pixels in Spectrum: 2068
>>>>>Begin Spectral Data<<<<<
196.211	167.60464
196.582	85.32127
196.954	100
197.325	120.73145
197.696	59.69224
198.067	52.42254
198.438	52.09679
198.809	44.12514
199.18	39.26408
199.551	40.93065
199.922	43.59784
200.293	42.36364
200.663	43.69363
201.034	41.82667
201.404	41.25794
201.774	38.19446
202.144	42.03675
202.515	42.12727
202.885	44.6328
203.255	42.09783
203.625	40.51377
203.994	40.54438
204.364	40.37129
204.734	37.63468
205.103	41.00562
205.473	39.73806
205.842	40.44702
206.212	38.95708
206.581	42.0773
206.95	39.88019
207.319	41.13022
207.688	40.2444
208.057	39.89569
208.426	39.16781
208.795	39.3631
209.163	39.54578
209.532	39.4479
209.9	40.82498
210.269	38.44064
210.637	39.12995
211.005	39.52887
211.374	37.56889
211.742	40.68316
212.11	37.61223
212.478	38.54161
212.846	41.22659
213.213	37.61099
213.581	37.9376
213.949	37.3912
214.316	36.29001
214.684	39.03665
215.051	35.04905
215.418	35.80942
215.786	34.52502
216.153	32.85478
216.52	36.61257
216.887	34.77621
217.254	35.23329
217.62	31.94139
217.987	34.94175
218.354	31.29984
218.72	33.02633
219.087	31.24439
219.453	29.86353
219.819	28.6542
220.186	28.74425
220.552	26.35557
220.918	24.83347
221.284	24.39807
221.65	24.62954
222.016	23.70274
222.381	22.1985
222.747	20.83863
223.113	21.14361
223.478	21.21197
223.844	19.96737
224.209	18.77793
224.574	17.93024
224.939	17.94725
225.304	17.20301
225.669	16.77763
226.034	16.56408
226.399	16.36464
226.764	15.75459
227.129	15.37648
227.493	14.99533
227.858	15.05523
228.222	14.83236
228.587	14.21677
228.951	14.37699
229.315	13.9652
229.679	13.71205
230.043	13.74853
230.407	13.56837
230.771	13.43796
231.135	13.317
231.499	13.03415
231.862	13.18708
232.226	13.16049
232.589	12.96122
232.953	12.83399
233.316	12.87737
233.679	12.77948
234.042	12.73359
234.405	12.67711
234.768	12.4382
235.131	12.4444
235.494	12.40707
235.857	12.33035
236.22	12.36375
236.582	12.22134
236.945	12.1379
237.307	12.0759
237.669	12.136
238.032	12.06218
238.394	12.08399
238.756	12.02021
239.118	11.93559
239.48	11.88915
239.842	11.95017
240.204	11.89547
240.565	11.84308
240.927	11.84171
241.288	11.75727
241.65	11.72615
242.011	11.74935
242.373	11.59509
242.734	11.65568
243.095	11.45096
243.456	11.54272
243.817	11.50475
244.178	11.32488
244.539	11.35596
244.899	11.34736
245.26	11.38998
245.621	11.27687
245.981	11.22869
246.341	11.211
246.702	11.23109
247.062	11.13098
247.422	11.09988
247.782	11.04035
248.142	11.05519
248.502	10.96196
248.862	10.97059
249.222	10.88246
249.582	10.93555
249.941	10.81319
250.301	10.83218
250.66	10.82226
251.02	10.80164
251.379	10.7018
251.738	10.85371
252.097	10.72586
252.456	10.65175
252.815	10.6251
253.174	10.67353
253.533	10.60524
253.892	10.5424
254.25	10.51449
254.609	10.57535
254.967	10.47235
255.326	10.43073
255.684	10.38325
256.042	10.4393
256.4	10.30442
256.759	10.44244
257.117	10.26756
257.474	10.41271
257.832	10.30401
258.19	10.25926
258.548	10.3234
258.905	10.31216
259.263	10.26006
259.62	10.26079
259.978	10.2673
260.335	10.21891
260.692	10.16375
261.049	10.13445
261.406	10.13857
261.763	10.19763
262.12	10.16788
262.477	10.2013
262.834	10.19421
263.19	10.18142
263.547	10.1507
263.904	10.11521
264.26	10.14035
264.616	10.13503
264.973	10.1408
265.329	10.12733
265.685	10.17467
266.041	10.19808
266.397	10.17298
266.753	10.11482
267.108	10.1412
267.464	10.05565
267.82	10.13554
268.175	10.11746
268.531	9.99637
268.886	10.02293
269.241	9.96265
269.597	10.06552
269.952	10.09961
270.307	10.00713
270.662	10.0464
271.017	10.03083
271.371	10.02919
271.726	9.95661
272.081	10.05345
272.435	10.03278
272.79	10.00956
273.144	10.00501
273.499	9.98014
273.853	9.99279
274.207	10.08784
274.561	10.07161
274.915	10.0391
275.269	9.99206
275.623	10.0043
275.977	9.87267
276.331	9.94721
276.684	9.89323
277.038	9.92032
277.391	9.93656
277.745	9.88574
278.098	9.88064
278.451	9.96602
278.804	9.86159
279.157	9.85397
279.51	9.89864
279.863	9.84728
280.216	9.82859
280.569	9.87028
280.922	9.85648
281.274	9.92496
281.627	9.80027
281.979	9.86483
282.332	9.82409
282.684	9.81593
283.036	9.7913
283.388	9.75859
283.74	9.8164
284.092	9.79674
284.444	9.73804
284.796	9.68506
285.148	9.73048
285.499	9.72478
285.851	9.70703
286.202	9.6614
286.554	9.66237
286.905	9.70521
287.257	9.71555
287.608	9.65162
287.959	9.62529
288.31	9.63188
288.661	9.67572
289.012	9.59272
289.362	9.54113
289.713	9.57806
290.064	9.60119
290.414	9.57133
290.765	9.55019
291.115	9.56403
291.466	9.57546
291.816	9.5448
292.166	9.49752
292.516	9.58388
292.866	9.48939
293.216	9.50033
293.566	9.5133
293.916	9.58499
294.265	9.50996
294.615	9.49701
294.964	9.51182
295.314	9.46623
295.663	9.42519
296.013	9.47333
296.362	9.47437
296.711	9.44456
297.06	9.42554
297.409	9.43779
297.758	9.4148
298.107	9.36609
298.455	9.38398
298.804	9.35171
299.153	9.3655
299.501	9.35403
299.85	9.39679
300.198	9.30072
300.546	9.37823
300.894	9.42114
301.243	9.35582
301.591	9.37517
301.939	9.39248
302.287	9.40954
302.634	9.39817
302.982	9.35039
303.33	9.37465
303.677	9.40246
304.025	9.34709
304.372	9.36096
304.72	9.40771
305.067	9.27611
305.414	9.29659
305.761	9.35805
306.108	9.25452
306.455	9.21044
306.802	9.30776
307.149	9.29524
307.495	9.30272
307.842	9.2971
308.189	9.28748
308.535	9.23689
308.882	9.24492
309.228	9.22857
309.574	9.22405
309.92	9.31292
310.266	9.24687
310.612	9.2463
310.958	9.1808
311.304	9.24797
311.65	9.27702
311.996	9.20423
312.341	9.21021
312.687	9.1746
313.032	9.15145
313.378	9.16285
313.723	9.14028
314.068	9.15947
314.413	9.19135
314.759	9.18294
315.104	9.15682
315.449	9.17904
315.793	9.1438
316.138	9.15089
316.483	9.11055
316.827	9.11107
317.172	9.1314
317.516	9.09255
317.861	9.12622
318.205	9.14883
318.549	9.09631
318.894	9.04243
319.238	9.04098
319.582	9.14035
319.926	9.05936
320.269	9.07633
320.613	9.09228
320.957	9.07728
321.3	9.06956
321.644	9.05146
321.987	9.01671
322.331	9.08253
322.674	9.06005
323.017	8.94919
323.36	8.95694
323.704	8.96067
324.047	9.04765
324.389	9.03705
324.732	8.94233
325.075	8.93254
325.418	8.87147
325.76	8.98386
326.103	8.98261
326.445	8.96392
326.788	8.95992
327.13	8.93174
327.472	8.88854
327.814	8.82598
328.156	8.85719
328.498	8.88791
328.84	8.89106
329.182	8.84263
329.524	8.87621
329.866	8.83854
330.207	8.80874
330.549	8.80725
330.89	8.8753
331.231	8.89594
331.573	8.83582
331.914	8.75965
332.255	8.74579
332.596	8.82423
332.937	8.81484
333.278	8.78598
333.619	8.77551
333.96	8.80009
334.3	8.76371
334.641	8.73438
334.981	8.73826
335.322	8.78321
335.662	8.77464
336.003	8.72678
336.343	8.745
336.683	8.84756
337.023	8.71502
337.363	8.69587
337.703	8.77093
338.043	8.64308
338.382	8.75858
338.722	8.77708
339.062	8.76006
339.401	8.72036
339.741	8.73621
340.08	8.70822
340.419	8.65406
340.759	8.71183
341.098	8.77479
341.437	8.71418
341.776	8.6635
342.115	8.72973
342.454	8.70244
342.792	8.71996
343.131	8.68915
343.47	8.72325
343.808	8.74012
344.147	8.75108
344.485	8.76825
344.823	8.68666
345.162	8.67047
345.5	8.72916
345.838	8.70237
346.176	8.73063
346.514	8.83152
346.851	8.72812
347.189	8.7193
347.527	8.74671
347.865	8.76323
348.202	8.71657
348.54	8.64341
348.877	8.61923
349.214	8.72241
349.551	8.72849
349.889	8.7119
350.226	8.68988
350.563	8.77174
350.9	8.6646
351.236	8.65943
351.573	8.73248
351.91	8.73059
352.247	8.67828
352.583	8.64481
352.92	8.77889
353.256	8.70361
353.592	8.6515
353.929	8.80458
354.265	8.68784
354.601	8.65301
354.937	8.73752
355.273	8.72082
355.609	8.68852
355.944	8.67595
356.28	8.6508
356.616	8.70388
356.951	8.69243
357.287	8.65236
357.622	8.69708
357.957	8.63879
358.293	8.68583
358.628	8.78266
358.963	8.69487
359.298	8.59282
359.633	8.65914
359.968	8.65007
360.303	8.66624
360.637	8.67919
360.972	8.69441
361.307	8.65507
361.641	8.63292
361.975	8.67001
362.31	8.70305
362.644	8.61291
362.978	8.61525
363.312	8.62699
363.646	8.70076
363.98	8.61583
364.314	8.64438
364.648	8.72222
364.982	8.65095
365.315	8.67206
365.649	8.60673
365.983	8.56744
366.316	8.63001
366.649	8.68064
366.983	8.66551
367.316	8.6061
367.649	8.72135
367.982	8.66123
368.315	8.64493
368.648	8.57157
368.981	8.4306
369.313	8.64153
369.646	8.70585
369.979	8.64533
370.311	8.65738
370.644	8.6456
370.976	8.69904
371.308	8.6118
371.641	8.70404
371.973	8.60966
372.305	8.58029
372.637	8.59743
372.969	8.60653
373.301	8.60052
373.632	8.52954
373.964	8.65954
374.296	8.62945
374.627	8.54567
374.959	8.61255
375.29	8.64574
375.621	8.51679
375.953	8.62329
376.284	8.57132
376.615	8.47634
376.946	8.59184
377.277	8.62922
377.608	8.61049
377.939	8.66286
378.269	8.52307
378.6	8.61013
378.931	8.57322
379.261	8.59023
379.591	8.53785
379.922	8.62508
380.252	8.60578
380.582	8.57695
380.912	8.60831
381.242	8.63395
381.572	8.59159
381.902	8.57037
382.232	8.57651
382.562	8.52217
382.891	8.46854
383.221	8.50727
383.551	8.48784
383.88	8.59888
384.209	8.52973
384.539	8.59923
384.868	8.62278
385.197	8.56651
385.526	8.5456
385.855	8.57696
386.184	8.6269
386.513	8.55533
386.842	8.58921
387.17	8.60469
387.499	8.59342
387.828	8.72379
388.156	8.59685
388.484	8.48174
388.813	8.4758
389.141	8.54931
389.469	8.47028
389.797	8.58171
390.125	8.56818
390.453	8.62274
390.781	8.64826
391.109	8.49029
391.437	8.57921
391.764	8.5961
392.092	8.54044
392.419	8.50512
392.747	8.60713
393.074	8.60915
393.401	8.55024
393.729	8.65975
394.056	8.63719
394.383	8.54617
394.71	8.6245
395.037	8.61778
395.363	8.59849
395.69	8.57635
396.017	8.58674
396.344	8.58488
396.67	8.55535
396.997	8.69299
397.323	8.57911
397.649	8.67895
397.975	8.58466
398.302	8.62357
398.628	8.63995
398.954	8.63867
399.28	8.64944
399.606	8.6019
399.931	8.67646
400.257	8.70091
400.583	8.76584
400.908	8.7594
401.234	8.67487
401.559	8.75875
401.884	8.71303
402.21	8.72763
402.535	8.741
402.86	8.78008
403.185	8.84339
403.51	8.84342
403.835	8.83637
404.16	8.76757
404.485	8.74621
404.809	8.67237
405.134	8.77346
405.458	8.81742
405.783	8.91744
406.107	8.86565
406.432	8.85374
406.756	8.87737
407.08	8.8923
407.404	8.96014
407.728	8.92767
408.052	8.87954
408.376	8.96328
408.7	9.08626
409.023	9.06726
409.347	8.98887
409.671	8.98771
409.994	9.0393
410.317	9.0937
410.641	9.03133
410.964	9.12949
411.287	9.07561
411.61	9.15492
411.933	9.12409
412.256	9.12547
412.579	9.25935
412.902	9.09248
413.225	9.11778
413.548	9.1318
413.87	9.12347
414.193	9.32497
414.515	9.26397
414.838	9.20135
415.16	9.33092
415.482	9.28046
415.804	9.3833
416.126	9.25717
416.448	9.35317
416.77	9.41577
417.092	9.471
417.414	9.49052
417.736	9.49493
418.057	9.46555
418.379	9.49641
418.701	9.59924
419.022	9.56922
419.343	9.64713
419.665	9.56864
419.986	9.55328
420.307	9.58799
420.628	9.5322
420.949	9.72962
421.27	9.73513
421.591	9.81521
421.912	9.71779
422.232	9.66968
422.553	9.86679
422.873	9.85322
423.194	9.75702
423.514	9.85569
423.835	9.94704
424.155	9.83247
424.475	10.07905
424.795	9.96838
425.115	10.17622
425.435	10.01166
425.755	10.1104
426.075	10.00109
426.395	10.09019
426.714	10.08394
427.034	10.16066
427.354	10.15905
427.673	10.13213
427.992	10.08672
428.312	10.15167
428.631	10.19219
428.95	10.24451
429.269	10.21803
429.588	10.15297
429.907	10.15837
430.226	10.32022
430.545	10.40635
430.864	10.36423
431.182	10.39956
431.501	10.42498
431.819	10.26689
432.138	10.47636
432.456	10.52166
432.774	10.43408
433.093	10.80058
433.411	10.64414
433.729	10.75542
434.047	10.72596
434.365	10.75849
434.683	10.76921
435	10.80257
435.318	10.66073
435.636	10.75274
435.953	10.81382
436.271	10.81078
436.588	10.76542
436.906	10.93193
437.223	10.81283
437.54	10.8836
437.857	10.96026
438.174	10.87374
438.491	10.96597
438.808	11.07867
439.125	11.14742
439.442	11.08624
439.758	10.95269
440.075	11.04676
440.392	11.02723
440.708	11.04737
441.024	11.00933
441.341	11.07192
441.657	11.14458
441.973	11.13045
442.289	11.13576
442.605	11.19032
442.921	11.15647
443.237	11.214
443.553	11.24922
443.869	11.09818
444.184	11.10551
444.5	11.23255
444.816	11.17977
445.131	11.33961
445.446	11.1853
445.762	11.309
446.077	11.1612
446.392	11.19954
446.707	11.23143
447.022	11.27592
447.337	11.4387
447.652	11.39298
447.967	11.31333
448.282	11.32017
448.596	11.42793
448.911	11.48049
449.225	11.38299
449.54	11.42429
449.854	11.27995
450.169	11.35134
450.483	11.32963
450.797	11.48981
451.111	11.52081
451.425	11.37759
451.739	11.40284
452.053	11.36128
452.367	11.37636
452.68	11.43075
452.994	11.4394
453.308	11.40544
453.621	11.21683
453.935	11.29706
454.248	11.33705
454.561	11.28965
454.874	11.41629
455.188	11.29067
455.501	11.32367
455.814	11.32023
456.127	11.2486
456.44	11.36409
456.752	11.256
457.065	11.28759
457.378	11.44445
457.69	11.20174
458.003	11.32174
458.315	11.23439
458.628	11.51122
458.94	11.29672
459.252	11.19427
459.564	11.28794
459.876	11.36292
460.188	11.37655
460.5	11.20316
460.812	11.22019
461.124	11.18249
461.436	11.14839
461.747	11.24484
462.059	11.22871
462.37	11.0907
462.682	11.11131
462.993	11.1317
463.304	11.25875
463.616	11.25337
463.927	11.16612
464.238	11.11525
464.549	11.2339
464.86	11.1562
465.171	11.1975
465.481	11.30852
465.792	11.30588
466.103	11.26673
466.413	11.19062
466.724	11.15883
467.034	11.19801
467.345	11.13906
467.655	11.25464
467.965	11.21592
468.275	11.22673
468.585	11.17677
468.895	11.18185
469.205	11.21948
469.515	11.09454
469.825	11.1879
470.135	11.21132
470.444	11.18619
470.754	11.21238
471.063	11.24443
471.373	11.1178
471.682	11.04435
471.991	11.35169
472.301	11.2413
472.61	11.09345
472.919	11.24372
473.228	11.21287
473.537	11.13787
473.846	11.16987
474.155	11.22009
474.463	11.04502
474.772	11.07337
475.08	11.21596
475.389	11.18411
475.697	11.07398
476.006	11.21964
476.314	11.17628
476.622	11.22869
476.93	11.05775
477.239	11.21888
477.547	11.05708
477.855	11.26412
478.162	11.10271
478.47	11.11943
478.778	11.13451
479.086	11.24221
479.393	11.18589
479.701	11.11582
480.008	11.17373
480.315	11.197
480.623	11.27221
480.93	11.23714
481.237	11.32322
481.544	11.12775
481.851	11.20557
482.158	11.22046
482.465	11.312
482.772	11.26381
483.079	11.13623
483.385	11.13099
483.692	11.17753
483.998	11.02623
484.305	11.17635
484.611	11.15131
484.918	11.13753
485.224	11.17818
485.53	11.15591
485.836	11.09915
486.142	11.13305
486.448	11.19536
486.754	11.08299
487.06	11.1051
487.366	11.13932
487.671	11.11752
487.977	11.12922
488.282	11.12243
488.588	11.15213
488.893	11.17992
489.199	11.18604
489.504	11.19243
489.809	11.33781
490.114	11.26289
490.419	11.26123
490.724	11.26224
491.029	11.38072
491.334	11.37376
491.639	11.2392
491.943	11.25085
492.248	11.32979
492.553	11.22639
492.857	11.38781
493.162	11.32654
493.466	11.33134
493.77	11.34314
494.074	11.361
494.378	11.4411
494.683	11.44114
494.987	11.47882
495.29	11.46139
495.594	11.53933
495.898	11.44612
496.202	11.57324
496.505	11.63001
496.809	11.57631
497.113	11.47256
497.416	11.58904
497.719	11.65379
498.023	11.5388
498.326	11.6642
498.629	11.65086
498.932	11.76721
499.235	11.62493
499.538	11.68457
499.841	11.69651
500.144	11.78959
500.446	11.76607
500.749	11.87106
501.052	11.81016
501.354	11.86945
501.657	11.91906
501.959	11.87662
502.261	11.8528
502.564	11.874
502.866	12.00447
503.168	12.03156
503.47	12.07609
503.772	12.06709
504.074	12.16461
504.376	12.21284
504.677	12.25698
504.979	12.29908
505.281	12.30741
505.582	12.32163
505.884	12.49323
506.185	12.43368
506.486	12.52324
506.788	12.56215
507.089	12.45235
507.39	12.68842
507.691	12.61166
507.992	12.79711
508.293	12.83522
508.594	12.81745
508.895	12.99626
509.195	13.04985
509.496	13.08694
509.797	13.15741
510.097	13.11862
510.398	13.18195
510.698	13.34242
510.998	13.39878
511.298	13.45011
511.599	13.4023
511.899	13.64527
512.199	13.61284
512.499	13.79116
512.799	13.76817
513.098	14.02672
513.398	13.9392
513.698	14.09223
513.997	14.22143
514.297	14.30263
514.596	14.27929
514.896	14.39329
515.195	14.57462
515.494	14.68733
515.794	14.77295
516.093	14.78404
516.392	14.89515
516.691	14.90815
516.99	15.13062
517.288	15.30323
517.587	15.32015
517.886	15.51557
518.185	15.62868
518.483	15.7521
518.782	15.80852
519.08	15.86476
519.378	15.9743
519.677	16.17275
519.975	16.33229
520.273	16.29302
520.571	16.48829
520.869	16.65743
521.167	16.78405
521.465	16.93222
521.763	16.9467
522.061	17.14395
522.358	17.31401
522.656	17.35579
522.953	17.32245
523.251	17.41677
523.548	17.69837
523.846	17.8142
524.143	17.86347
524.44	18.0941
524.737	18.07745
525.034	18.2014
525.331	18.35119
525.628	18.36206
525.925	18.51425
526.222	18.55099
526.518	18.55995
526.815	18.66794
527.112	18.96233
527.408	18.85817
527.705	18.91901
528.001	19.10331
528.297	18.89105
528.593	19.12744
528.89	19.21948
529.186	19.28059
529.482	19.30298
529.778	19.41479
530.074	19.48852
530.369	19.47696
530.665	19.36113
530.961	19.38487
531.256	19.40355
531.552	19.57766
531.847	19.59095
532.143	19.49232
532.438	19.4982
532.733	19.42394
533.029	19.53798
533.324	19.4891
533.619	19.40471
533.914	19.35132
534.209	19.39776
534.504	19.34291
534.798	19.32659
535.093	19.23886
535.388	19.23602
535.682	19.34894
535.977	19.24666
536.271	19.25948
536.566	19.15255
536.86	19.15568
537.154	19.14691
537.448	19.14009
537.742	19.01102
538.037	19.18654
538.33	19.16765
538.624	19.01843
538.918	19.08923
539.212	19.01613
539.506	19.05729
539.799	19.05965
540.093	19.01174
540.386	19.00951
540.68	19.00158
540.973	19.17043
541.266	19.12599
541.56	19.2356
541.853	19.1002
542.146	19.17118
542.439	19.222
542.732	19.30636
543.025	19.3552
543.318	19.36963
543.61	19.34006
543.903	19.3502
544.196	19.53441
544.488	19.47727
544.781	19.605
545.073	19.61461
545.365	19.82015
545.658	19.81782
545.95	19.86017
546.242	19.92285
546.534	20.04879
546.826	20.00902
547.118	20.13127
547.41	20.17763
547.702	20.2596
547.993	20.26919
548.285	20.38716
548.577	20.37803
548.868	20.60714
549.16	20.67131
549.451	20.75004
549.742	20.76429
550.034	20.86036
550.325	20.97028
550.616	20.98763
550.907	21.18071
551.198	21.1533
551.489	21.24678
551.78	21.26695
552.07	21.31283
552.361	21.3942
552.652	21.40095
552.942	21.4632
553.233	21.58658
553.523	21.64194
553.814	21.59077
554.104	21.69074
554.394	21.69851
554.684	21.80467
554.975	21.82468
555.265	21.92878
555.555	21.89301
555.845	21.95133
556.134	21.98172
556.424	21.97286
556.714	22.11555
557.003	21.94766
557.293	22.11116
557.583	22.17784
557.872	22.02453
558.161	22.1646
558.451	22.22936
558.74	22.0922
559.029	22.19781
559.318	22.24097
559.607	22.16398
559.896	22.12192
560.185	22.16589
560.474	22.1362
560.763	22.12744
561.051	22.06055
561.34	22.23308
561.629	22.26305
561.917	22.16359
562.205	22.20502
562.494	22.27192
562.782	22.17799
563.07	22.08524
563.359	22.17956
563.647	22.29461
563.935	22.12712
564.223	22.10203
564.51	22.16403
564.798	22.13803
565.086	22.10899
565.374	22.02834
565.661	22.10846
565.949	22.06026
566.236	22.06358
566.524	21.8159
566.811	21.99956
567.099	22.02844
567.386	21.9882
567.673	22.02878
567.96	21.96621
568.247	22.0437
568.534	22.03385
568.821	21.99702
569.108	22.00599
569.394	21.90171
569.681	21.86358
569.968	21.89784
570.254	21.89533
570.541	21.94479
570.827	21.88802
571.114	21.77844
571.4	21.88185
571.686	21.75968
571.972	21.77369
572.258	21.71708
572.544	21.78898
572.83	21.76311
573.116	21.7586
573.402	21.79443
573.688	21.87457
573.973	21.71487
574.259	21.61409
574.545	21.7271
574.83	21.74906
575.116	21.70803
575.401	21.68354
575.686	21.74532
575.971	21.60593
576.257	21.69328
576.542	21.56809
576.827	21.67916
577.112	21.55874
577.397	21.61527
577.681	21.47368
577.966	21.64642
578.251	21.54573
578.536	21.43888
578.82	21.53682
579.105	21.52536
579.389	21.45504
579.673	21.47237
579.958	21.36661
580.242	21.42215
580.526	21.28447
580.81	21.45338
581.094	21.39998
581.378	21.41633
581.662	21.3517
581.946	21.42402
582.23	21.35102
582.513	21.28625
582.797	21.28484
583.081	21.29926
583.364	21.35141
583.648	21.24781
583.931	21.2474
584.214	21.23748
584.498	21.1023
584.781	21.15447
585.064	21.0945
585.347	21.12025
585.63	21.13813
585.913	21.06996
586.196	21.04434
586.478	20.88093
586.761	21.05459
587.044	21.00162
587.326	20.8287
587.609	20.84077
587.891	20.86536
588.174	20.804
588.456	20.77429
588.738	20.74593
589.02	20.7528
589.303	20.71466
589.585	20.7406
589.867	20.59711
590.149	20.64334
590.43	20.54546
590.712	20.60787
590.994	20.54896
591.276	20.50545
591.557	20.48112
591.839	20.38155
592.12	20.38804
592.402	20.29849
592.683	20.41831
592.964	20.2903
593.245	20.32633
593.527	20.24031
593.808	20.19371
594.089	20.12388
594.37	20.09117
594.65	20.06655
594.931	20.00293
595.212	20.0117
595.493	19.9369
595.773	19.85861
596.054	19.86638
596.334	19.81728
596.615	19.74199
596.895	19.8065
597.175	19.71169
597.456	19.66683
597.736	19.69323
598.016	19.5213
598.296	19.55403
598.576	19.50323
598.856	19.43779
599.136	19.32675
599.415	19.34848
599.695	19.2012
599.975	19.15405
600.254	19.23573
600.534	19.14234
600.813	19.00783
601.093	18.96551
601.372	18.94232
601.651	18.9305
601.93	18.83173
602.209	18.80429
602.488	18.80388
602.767	18.6726
603.046	18.54783
603.325	18.54177
603.604	18.51346
603.883	18.4372
604.161	18.29408
604.44	18.33479
604.718	18.19785
604.997	18.18625
605.275	18.02349
605.554	17.99409
605.832	17.97166
606.11	17.93576
606.388	17.91515
606.666	17.8298
606.944	17.6964
607.222	17.71775
607.5	17.61638
607.778	17.60902
608.056	17.54592
608.333	17.5199
608.611	17.46707
608.889	17.43243
609.166	17.3091
609.444	17.20226
609.721	17.26949
609.998	17.28299
610.275	17.25957
610.553	17.15072
610.83	17.07818
611.107	16.98732
611.384	16.99802
611.661	16.94604
611.937	16.92227
612.214	16.98781
612.491	16.87387
612.768	16.84451
613.044	16.79791
613.321	16.85961
613.597	16.78318
613.874	16.70654
614.15	16.72067
614.426	16.68864
614.702	16.71944
614.978	16.65313
615.255	16.63137
615.531	16.65673
615.806	16.63823
616.082	16.58832
616.358	16.54611
616.634	16.58827
616.91	16.53018
617.185	16.51212
617.461	16.62025
617.736	16.58015
618.012	16.57134
618.287	16.49563
618.562	16.57345
618.838	16.54044
619.113	16.56232
619.388	16.64692
619.663	16.49455
619.938	16.55965
620.213	16.49721
620.488	16.50756
620.762	16.53342
621.037	16.54494
621.312	16.53742
621.586	16.49566
621.861	16.57804
622.135	16.64261
622.41	16.55107
622.684	16.62115
622.958	16.5582
623.233	16.7302
623.507	16.6346
623.781	16.73802
624.055	16.64979
624.329	16.5939
624.603	16.70825
624.876	16.6794
625.15	16.67905
625.424	16.68323
625.698	16.77671
625.971	16.72154
626.245	16.78024
626.518	16.73352
626.791	16.83527
627.065	16.82748
627.338	16.81907
627.611	16.83278
627.884	16.86654
628.157	16.87412
628.43	16.89164
628.703	16.94114
628.976	16.95874
629.249	16.83234
629.522	16.9189
629.794	16.93132
630.067	16.87214
630.339	16.87463
630.612	16.83215
630.884	16.91784
631.157	16.88241
631.429	16.90475
631.701	16.84614
631.973	16.8745
632.245	16.84834
632.518	16.84221
632.789	16.81086
633.061	16.72965
633.333	16.74754
633.605	16.72251
633.877	16.71891
634.148	16.74159
634.42	16.70748
634.691	16.63469
634.963	16.59657
635.234	16.51511
635.506	16.43475
635.777	16.40355
636.048	16.35808
636.319	16.38782
636.59	16.24326
636.861	16.15484
637.132	16.20347
637.403	16.0641
637.674	16.05995
637.945	16.01249
638.216	15.99355
638.486	15.86577
638.757	15.83242
639.027	15.75788
639.298	15.63714
639.568	15.62242
639.838	15.60832
640.109	15.49585
640.379	15.41392
640.649	15.32291
640.919	15.24055
641.189	15.28784
641.459	15.15968
641.729	15.0823
641.999	14.99079
642.269	14.89009
642.538	14.85612
642.808	14.84065
643.077	14.7327
643.347	14.70133
643.616	14.5788
643.886	14.63021
644.155	14.60149
644.424	14.47697
644.693	14.43104
644.963	14.37884
645.232	14.33922
645.501	14.29849
645.77	14.25978
646.038	14.23423
646.307	14.14477
646.576	14.05027
646.845	14.05875
647.113	13.99464
647.382	13.90378
647.65	13.88478
647.919	13.91379
648.187	13.83411
648.455	13.81549
648.724	13.8152
648.992	13.69418
649.26	13.67695
649.528	13.61213
649.796	13.55559
650.064	13.52945
650.332	13.56813
650.6	13.52505
650.867	13.48886
651.135	13.4278
651.403	13.3888
651.67	13.35125
651.938	13.26855
652.205	13.37394
652.473	13.28613
652.74	13.2202
653.007	13.17896
653.274	13.13384
653.541	13.1098
653.808	13.12523
654.075	13.01958
654.342	13.01918
654.609	12.98016
654.876	12.94514
655.143	12.8812
655.409	12.88152
655.676	12.77783
655.943	12.75534
656.209	12.69901
656.475	12.73809
656.742	12.64608
657.008	12.63313
657.274	12.56108
657.541	12.53097
657.807	12.39435
658.073	12.33217
658.339	12.31682
658.605	12.18252
658.871	12.23497
659.136	12.14878
659.402	12.05658
659.668	12.00429
659.933	11.94087
660.199	11.9723
660.464	11.81105
660.73	11.78962
660.995	11.74585
661.261	11.65132
661.526	11.60484
661.791	11.49149
662.056	11.50809
662.321	11.45291
662.586	11.37074
662.851	11.34708
663.116	11.22327
663.381	11.2111
663.646	11.20315
663.91	11.10938
664.175	11.05848
664.439	10.99185
664.704	10.92618
664.968	11.01675
665.233	10.87874
665.497	10.79261
665.761	10.7893
666.025	10.78657
666.29	10.72954
666.554	10.66585
666.818	10.66183
667.082	10.55838
667.345	10.55688
667.609	10.57509
667.873	10.55796
668.137	10.5015
668.4	10.50139
668.664	10.46926
668.927	10.51088
669.191	10.43582
669.454	10.42967
669.718	10.36762
669.981	10.35331
670.244	10.37444
670.507	10.29593
670.77	10.30678
671.033	10.36616
671.296	10.30037
671.559	10.30338
671.822	10.27681
672.085	10.27251
672.348	10.2335
672.61	10.22266
672.873	10.20715
673.135	10.24806
673.398	10.29528
673.66	10.28735
673.922	10.34889
674.185	10.25707
674.447	10.31731
674.709	10.30841
674.971	10.30933
675.233	10.32232
675.495	10.3674
675.757	10.33683
676.019	10.41468
676.281	10.41365
676.542	10.41086
676.804	10.43854
677.066	10.47503
677.327	10.46637
677.589	10.53296
677.85	10.53733
678.112	10.53126
678.373	10.66172
678.634	10.63874
678.895	10.68501
679.156	10.7705
679.417	10.72687
679.678	10.85821
679.939	10.84235
680.2	10.8271
680.461	10.98099
680.722	11.01218
680.982	11.01589
681.243	11.1191
681.504	11.20038
681.764	11.26704
682.025	11.37894
682.285	11.43343
682.545	11.5523
682.806	11.60241
683.066	11.69804
683.326	11.79238
683.586	11.9143
683.846	11.99747
684.106	12.0988
684.366	12.22675
684.626	12.30915
684.885	12.51294
685.145	12.606
685.405	12.7951
685.664	12.91229
685.924	13.01112
686.183	13.21657
686.443	13.35441
686.702	13.51908
686.961	13.68244
687.221	13.95573
687.48	14.06883
687.739	14.3058
687.998	14.60129
688.257	14.671
688.516	14.96767
688.775	15.159
689.033	15.45221
689.292	15.62738
689.551	15.85188
689.809	16.08367
690.068	16.32754
690.326	16.62277
690.585	16.95293
690.843	17.20408
691.102	17.48809
691.36	17.76885
691.618	18.11301
691.876	18.51976
692.134	18.71593
692.392	19.02835
692.65	19.32744
692.908	19.67024
693.166	20.03861
693.424	20.41397
693.681	20.7526
693.939	21.07932
694.197	21.48574
694.454	21.75907
694.712	22.18226
694.969	22.54122
695.226	22.88257
695.484	23.26101
695.741	23.67434
695.998	23.97781
696.255	24.43274
696.512	24.83651
696.769	25.27259
697.026	25.5494
697.283	25.89049
697.54	26.29438
697.796	26.65665
698.053	27.11315
698.31	27.46685
698.566	27.83153
698.823	28.26131
699.079	28.52138
699.336	28.94952
699.592	29.35236
699.848	29.78419
700.104	30.15631
700.361	30.57562
700.617	30.84501
700.873	31.20916
701.129	31.62146
701.384	32.0048
701.64	32.23243
701.896	32.63868
702.152	32.95892
702.407	33.31324
702.663	33.74923
702.919	34.06079
703.174	34.47056
703.43	34.52309
703.685	35.01709
703.94	35.30605
704.195	35.67707
704.451	35.97
704.706	36.44005
704.961	36.70009
705.216	36.95524
705.471	37.32613
705.726	37.48187
705.98	37.76794
706.235	38.10387
706.49	38.55812
706.745	38.74197
706.999	39.05445
707.254	39.3032
707.508	39.48203
707.762	39.66953
708.017	39.97244
708.271	40.11463
708.525	40.4865
708.779	40.68875
709.034	40.99333
709.288	41.1555
709.542	41.39781
709.796	41.55879
710.049	41.79944
710.303	42.07833
710.557	42.20195
710.811	42.45478
711.064	42.7518
711.318	42.78831
711.571	43.07196
711.825	43.27876
712.078	43.48085
712.331	43.63661
712.585	43.86283
712.838	43.9304
713.091	44.19181
713.344	44.47285
713.597	44.62761
713.85	44.63592
714.103	44.90731
714.356	45.04135
714.609	45.04043
714.862	45.28906
715.114	45.35777
715.367	45.52219
715.619	45.59084
715.872	45.85088
716.124	45.85547
716.377	46.01896
716.629	46.09431
716.881	46.30383
717.133	46.31766
717.386	46.48223
717.638	46.72209
717.89	46.60785
718.142	46.92591
718.394	46.90796
718.645	46.91951
718.897	47.14235
719.149	47.34265
719.401	47.3538
719.652	47.46241
719.904	47.51612
720.155	47.63365
720.407	47.89159
720.658	47.73612
720.909	47.83348
721.161	47.91824
721.412	47.97397
721.663	48.11673
721.914	48.15807
722.165	48.20299
722.416	48.37964
722.667	48.39235
722.918	48.43638
723.169	48.4858
723.419	48.57422
723.67	48.66492
723.921	48.77559
724.171	48.67665
724.422	48.87895
724.672	48.98768
724.922	48.88991
725.173	49.02234
725.423	49.13775
725.673	49.26689
725.923	49.27992
726.173	49.24394
726.423	49.24473
726.673	49.33546
726.923	49.46771
727.173	49.61095
727.423	49.55483
727.673	49.61914
727.922	49.43729
728.172	49.6597
728.421	49.70647
728.671	49.76186
728.92	49.83779
729.17	50.01637
729.419	49.80793
729.668	49.88722
729.918	49.76054
730.167	50.05736
730.416	50.13598
730.665	50.00578
730.914	50.1096
731.163	50.09155
731.411	50.1021
731.66	50.11674
731.909	50.26326
732.158	50.27104
732.406	50.26002
732.655	50.29784
732.903	50.40494
733.152	50.32694
733.4	50.47844
733.648	50.6052
733.897	50.47353
734.145	50.64658
734.393	50.5728
734.641	50.59611
734.889	50.43743
735.137	50.72875
735.385	50.72524
735.633	50.62083
735.881	50.69645
736.129	50.69553
736.376	50.69662
736.624	50.7215
736.871	50.67318
737.119	50.89995
737.366	50.94508
737.614	50.97541
737.861	51.01154
738.108	51.17045
738.356	50.93658
738.603	50.94758
738.85	51.05601
739.097	51.06601
739.344	50.91206
739.591	51.04967
739.838	50.97133
740.084	51.11543
740.331	51.10296
740.578	51.04935
740.825	51.02866
741.071	51.05326
741.318	51.11597
741.564	51.09654
741.811	51.17857
742.057	51.21065
742.303	51.2934
742.549	51.29462
742.796	51.31316
743.042	51.19733
743.288	51.34973
743.534	51.31963
743.78	51.36879
744.026	51.35011
744.271	51.30643
744.517	51.33816
744.763	51.36965
745.009	51.48481
745.254	51.3935
745.5	51.27593
745.745	51.35804
745.991	51.42905
746.236	51.38673
746.481	51.47748
746.727	51.44822
746.972	51.32495
747.217	51.38113
747.462	51.39223
747.707	51.39725
747.952	51.32955
748.197	51.46967
748.442	51.44507
748.686	51.49083
748.931	51.50592
749.176	51.34665
749.421	51.37056
749.665	51.48029
749.91	51.36164
750.154	51.32015
750.398	51.47372
750.643	51.43243
750.887	51.51482
751.131	51.55424
751.375	51.44633
751.62	51.3751
751.864	51.49471
752.108	51.63051
752.351	51.48518
752.595	51.55104
752.839	51.44002
753.083	51.48112
753.327	51.42215
753.57	51.54205
753.814	51.56207
754.057	51.59695
754.301	51.36605
754.544	51.51968
754.788	51.5173
755.031	51.47416
755.274	51.65559
755.517	51.60222
755.761	51.56051
756.004	51.45579
756.247	51.63497
756.49	51.40629
756.732	51.51155
756.975	51.54471
757.218	51.44798
757.461	51.48856
757.704	51.51592
757.946	51.47166
758.189	51.38124
758.431	51.5742
758.674	51.42465
758.916	51.5257
759.158	51.46992
759.401	51.63824
759.643	51.6445
759.885	51.56146
760.127	51.48498
760.369	51.51882
760.611	51.5978
760.853	51.48137
761.095	51.54066
761.337	51.48467
761.579	51.4924
761.82	51.48673
762.062	51.60561
762.304	51.48216
762.545	51.32476
762.787	51.38389
763.028	51.36422
763.269	51.42134
763.511	51.32618
763.752	51.37277
763.993	51.50714
764.234	51.47626
764.475	51.47924
764.716	51.47368
764.957	51.42856
765.198	51.43006
765.439	51.50864
765.68	51.39883
765.921	51.54558
766.161	51.48892
766.402	51.60339
766.643	51.49666
766.883	51.41238
767.124	51.48374
767.364	51.54714
767.604	51.66068
767.845	51.4924
768.085	51.5607
768.325	51.3954
768.565	51.35806
768.805	51.58601
769.045	51.74921
769.285	51.4793
769.525	51.4741
769.765	51.57871
770.005	51.32994
770.244	51.58263
770.484	51.48862
770.724	51.34627
770.963	51.52041
771.203	51.48492
771.442	51.48408
771.682	51.45523
771.921	51.42219
772.16	51.50008
772.399	51.47652
772.639	51.39056
772.878	51.48376
773.117	51.49602
773.356	51.29473
773.595	51.44369
773.834	51.34852
774.072	51.38129
774.311	51.26748
774.55	51.39171
774.789	51.29544
775.027	51.40268
775.266	51.36684
775.504	51.5262
775.743	51.41652
775.981	51.37436
776.219	51.1901
776.458	51.38572
776.696	51.3891
776.934	51.37462
777.172	51.18643
777.41	51.27394
777.648	51.32211
777.886	51.50751
778.124	51.22118
778.362	51.23615
778.6	51.05324
778.837	51.24027
779.075	51.03566
779.313	51.1799
779.55	51.26881
779.788	51.1877
780.025	51.28815
780.262	51.20285
780.5	51.38172
780.737	51.20923
780.974	51.31988
781.211	51.33043
781.449	51.18728
781.686	51.24019
781.923	51.26811
782.159	51.37712
782.396	51.26774
782.633	51.33105
782.87	51.41695
783.107	51.36887
783.343	51.41045
783.58	51.34747
783.816	51.28338
784.053	51.33573
784.289	51.30613
784.526	51.21779
784.762	51.28318
784.998	51.39431
785.235	51.3054
785.471	51.19605
785.707	51.17839
785.943	51.2512
786.179	51.37428
786.415	51.06823
786.651	51.22312
786.887	51.22223
787.122	51.27121
787.358	51.25605
787.594	51.16582
787.829	51.14402
788.065	51.18468
788.3	51.14131
788.536	51.24749
788.771	51.07756
789.006	51.30501
789.242	51.07713
789.477	51.20801
789.712	51.16884
789.947	51.13764
790.182	51.23924
790.417	51.15131
790.652	51.15673
790.887	51.21278
791.122	51.27183
791.357	51.03584
791.591	51.09681
791.826	51.12913
792.061	51.11192
792.295	51.20226
792.53	51.10447
792.764	51.04832
792.999	51.01021
793.233	51.21675
793.467	51.07274
793.701	51.13467
793.936	51.16386
794.17	51.22307
794.404	51.19412
794.638	51.14724
794.872	51.18354
795.106	51.37779
795.34	51.19224
795.573	51.14706
795.807	51.10995
796.041	51.09834
796.274	51.0922
796.508	51.04036
796.741	51.10816
796.975	51.07473
797.208	51.10059
797.442	51.063
797.675	51.01131
797.908	51.12875
798.141	51.00902
798.375	50.91248
798.608	50.83085
798.841	51.00386
799.074	51.14774
799.306	51.01504
799.539	50.97956
799.772	50.97646
800.005	51.05729
800.238	50.98262
800.47	51.18855
800.703	51.05419
800.935	51.14828
801.168	51.03096
801.4	50.94159
801.633	50.95788
801.865	51.01442
802.097	50.94081
802.329	51.01043
802.562	51.09799
802.794	50.98667
803.026	51.05582
803.258	50.99957
803.49	51.11611
803.721	51.151
803.953	50.97664
804.185	50.99629
804.417	50.96741
804.648	50.99693
804.88	50.92505
805.112	51.01426
805.343	51.00559
805.575	51.02098
805.806	51.04287
806.037	50.91849
806.269	51.01312
806.5	50.97233
806.731	50.97006
806.962	50.85387
807.193	50.86188
807.424	50.82959
807.655	51.02434
807.886	47.34357
808.117	75.00057
808.348	40.80038
808.578	56.91095
