Data from Reflection__15__10-40-15-470.txt Node

Date: Wed Jul 02 10:40:15 BST 2025
User: Jamie
Spectrometer: HDX00312
Trigger mode: 0
Integration Time (sec): 1.070000E-1
Scans to average: 10
Nonlinearity correction enabled: true
Boxcar width: 0
Storing dark spectrum: false
XAxis mode: Wavelengths
Number of Pixels in Spectrum: 2068
>>>>>Begin Spectral Data<<<<<
196.211	91.93554
196.582	79.48726
196.954	159.09065
197.325	211.99925
197.696	118.05806
198.067	112.63961
198.438	94.37615
198.809	70.76548
199.18	63.22264
199.551	63.0007
199.922	61.80172
200.293	64.75905
200.663	62.14188
201.034	60.68122
201.404	62.39988
201.774	63.5923
202.144	61.32467
202.515	61.82845
202.885	59.31134
203.255	61.78488
203.625	60.35846
203.994	65.04261
204.364	61.85468
204.734	60.18097
205.103	63.22368
205.473	58.95113
205.842	66.35959
206.212	61.20737
206.581	60.62302
206.95	60.78039
207.319	59.80593
207.688	60.65868
208.057	60.48941
208.426	61.14751
208.795	60.13149
209.163	58.61209
209.532	56.80567
209.9	55.46424
210.269	58.41259
210.637	59.93051
211.005	53.50282
211.374	57.54916
211.742	55.75496
212.11	58.79697
212.478	52.99152
212.846	51.62359
213.213	52.47483
213.581	55.89493
213.949	51.40153
214.316	51.9063
214.684	49.0963
215.051	48.84875
215.418	49.27296
215.786	50.65078
216.153	46.42097
216.52	45.51049
216.887	45.19615
217.254	45.85149
217.62	42.73646
217.987	41.88121
218.354	41.63585
218.72	40.54371
219.087	36.98461
219.453	35.45654
219.819	35.10692
220.186	33.08541
220.552	31.07683
220.918	29.33335
221.284	27.05721
221.65	25.61177
222.016	22.99004
222.381	22.06757
222.747	20.69839
223.113	20.69937
223.478	18.77987
223.844	18.0058
224.209	17.04247
224.574	15.48958
224.939	15.58306
225.304	14.61727
225.669	14.78048
226.034	13.75674
226.399	13.60062
226.764	13.29945
227.129	12.71428
227.493	12.76287
227.858	12.39062
228.222	11.96336
228.587	11.45284
228.951	11.46633
229.315	11.42611
229.679	11.22864
230.043	11.12654
230.407	11.0798
230.771	10.79197
231.135	10.69414
231.499	10.56733
231.862	10.27558
232.226	10.30174
232.589	10.21084
232.953	10.16426
233.316	10.25303
233.679	10.20748
234.042	10.09101
234.405	9.92247
234.768	9.85006
235.131	9.89812
235.494	9.82941
235.857	9.71947
236.22	9.72004
236.582	9.69845
236.945	9.60699
237.307	9.41838
237.669	9.49362
238.032	9.50962
238.394	9.43252
238.756	9.36594
239.118	9.29201
239.48	9.33602
239.842	9.30373
240.204	9.23769
240.565	9.21787
240.927	9.23453
241.288	9.2578
241.65	9.11082
242.011	9.11817
242.373	9.11764
242.734	9.12302
243.095	9.06794
243.456	9.0137
243.817	9.01159
244.178	8.98063
244.539	8.96095
244.899	8.96823
245.26	8.9178
245.621	8.84558
245.981	8.93166
246.341	8.88924
246.702	8.82462
247.062	8.8486
247.422	8.75742
247.782	8.75691
248.142	8.78351
248.502	8.70187
248.862	8.69725
249.222	8.67941
249.582	8.71636
249.941	8.6532
250.301	8.66031
250.66	8.67528
251.02	8.63393
251.379	8.61442
251.738	8.60935
252.097	8.59353
252.456	8.58722
252.815	8.57718
253.174	8.53221
253.533	8.55321
253.892	8.54732
254.25	8.5592
254.609	8.59717
254.967	8.55784
255.326	8.53468
255.684	8.5359
256.042	8.50881
256.4	8.50696
256.759	8.51704
257.117	8.51295
257.474	8.47904
257.832	8.51138
258.19	8.47579
258.548	8.48609
258.905	8.5215
259.263	8.43333
259.62	8.49674
259.978	8.44028
260.335	8.44171
260.692	8.49859
261.049	8.49811
261.406	8.49743
261.763	8.47928
262.12	8.48134
262.477	8.52262
262.834	8.48608
263.19	8.48171
263.547	8.48986
263.904	8.48871
264.26	8.45507
264.616	8.5348
264.973	8.53508
265.329	8.55096
265.685	8.62153
266.041	8.61542
266.397	8.53137
266.753	8.60969
267.108	8.53376
267.464	8.57478
267.82	8.61231
268.175	8.59159
268.531	8.59565
268.886	8.64827
269.241	8.6021
269.597	8.68114
269.952	8.64843
270.307	8.67515
270.662	8.65034
271.017	8.65367
271.371	8.64092
271.726	8.68264
272.081	8.58077
272.435	8.63775
272.79	8.62553
273.144	8.69132
273.499	8.64058
273.853	8.71585
274.207	8.65498
274.561	8.63957
274.915	8.642
275.269	8.75782
275.623	8.68826
275.977	8.71659
276.331	8.73271
276.684	8.6564
277.038	8.75663
277.391	8.73317
277.745	8.77358
278.098	8.7377
278.451	8.79461
278.804	8.85
279.157	8.82117
279.51	8.73877
279.863	8.77748
280.216	8.7835
280.569	8.77473
280.922	8.79045
281.274	8.79757
281.627	8.8066
281.979	8.81461
282.332	8.75337
282.684	8.76158
283.036	8.77831
283.388	8.77892
283.74	8.80772
284.092	8.755
284.444	8.82076
284.796	8.7586
285.148	8.75767
285.499	8.80231
285.851	8.81093
286.202	8.70311
286.554	8.82857
286.905	8.71571
287.257	8.75586
287.608	8.79723
287.959	8.76118
288.31	8.77627
288.661	8.79477
289.012	8.8177
289.362	8.84556
289.713	8.84005
290.064	8.75826
290.414	8.80647
290.765	8.77846
291.115	8.85946
291.466	8.79237
291.816	8.83265
292.166	8.7931
292.516	8.79416
292.866	8.82527
293.216	8.80779
293.566	8.83139
293.916	8.77264
294.265	8.81386
294.615	8.82604
294.964	8.85838
295.314	8.83373
295.663	8.81718
296.013	8.82823
296.362	8.85275
296.711	8.81924
297.06	8.89175
297.409	8.88369
297.758	8.88961
298.107	8.91062
298.455	8.83049
298.804	8.89293
299.153	8.90367
299.501	8.92716
299.85	8.90594
300.198	8.96901
300.546	8.97477
300.894	9.0234
301.243	8.96223
301.591	8.9766
301.939	8.98132
302.287	8.93668
302.634	9.00324
302.982	9.0773
303.33	8.98763
303.677	9.00605
304.025	9.01457
304.372	9.02022
304.72	9.0516
305.067	9.07222
305.414	9.06685
305.761	9.02177
306.108	9.07981
306.455	9.01736
306.802	9.03061
307.149	9.09156
307.495	9.06551
307.842	9.05541
308.189	9.07874
308.535	9.04767
308.882	9.01495
309.228	9.08134
309.574	9.05704
309.92	9.07201
310.266	9.0397
310.612	9.03987
310.958	9.07112
311.304	9.03901
311.65	9.05913
311.996	9.0436
312.341	9.02271
312.687	9.02754
313.032	9.01952
313.378	9.05113
313.723	9.0438
314.068	9.06996
314.413	9.06711
314.759	9.04531
315.104	9.02571
315.449	9.07177
315.793	9.01153
316.138	9.0228
316.483	9.03371
316.827	9.01705
317.172	8.99136
317.516	9.04537
317.861	9.07509
318.205	9.14087
318.549	9.13064
318.894	9.02884
319.238	9.07482
319.582	9.05441
319.926	9.04857
320.269	9.08031
320.613	9.13452
320.957	9.12855
321.3	9.0562
321.644	9.05065
321.987	9.10421
322.331	9.08004
322.674	9.05071
323.017	9.06822
323.36	9.09439
323.704	9.11218
324.047	9.11835
324.389	9.10486
324.732	9.08133
325.075	9.10822
325.418	9.10728
325.76	9.04489
326.103	9.12075
326.445	9.17617
326.788	9.09813
327.13	9.08739
327.472	9.13023
327.814	9.16012
328.156	9.14298
328.498	9.1133
328.84	9.13982
329.182	9.12347
329.524	9.13468
329.866	9.07355
330.207	9.13806
330.549	9.08169
330.89	9.03257
331.231	9.09056
331.573	9.12477
331.914	9.00131
332.255	9.04782
332.596	9.0287
332.937	9.08174
333.278	9.13237
333.619	9.02837
333.96	9.01652
334.3	9.01565
334.641	8.94884
334.981	9.05286
335.322	9.0557
335.662	9.08025
336.003	8.94321
336.343	9.05011
336.683	8.99616
337.023	9.03727
337.363	9.06
337.703	9.00911
338.043	9.03334
338.382	9.0969
338.722	9.04254
339.062	9.06624
339.401	9.02271
339.741	9.0145
340.08	9.0476
340.419	9.09059
340.759	9.07311
341.098	9.06092
341.437	9.06879
341.776	9.08371
342.115	9.07768
342.454	9.0435
342.792	9.02717
343.131	9.10998
343.47	9.07155
343.808	9.11329
344.147	9.09543
344.485	9.19705
344.823	9.18218
345.162	9.14195
345.5	9.16926
345.838	9.12935
346.176	9.11431
346.514	9.12351
346.851	9.19663
347.189	9.18323
347.527	9.21213
347.865	9.08873
348.202	9.26276
348.54	9.18902
348.877	9.10949
349.214	9.22948
349.551	9.18594
349.889	9.25471
350.226	9.19415
350.563	9.26265
350.9	9.20858
351.236	9.23518
351.573	9.22941
351.91	9.22854
352.247	9.24109
352.583	9.15729
352.92	9.20959
353.256	9.21901
353.592	9.21095
353.929	9.32699
354.265	9.18851
354.601	9.20759
354.937	9.19871
355.273	9.28465
355.609	9.216
355.944	9.17229
356.28	9.20452
356.616	9.21201
356.951	9.2637
357.287	9.30978
357.622	9.24174
357.957	9.30405
358.293	9.34985
358.628	9.33143
358.963	9.34604
359.298	9.39624
359.633	9.38393
359.968	9.3651
360.303	9.35083
360.637	9.4163
360.972	9.50328
361.307	9.46621
361.641	9.44395
361.975	9.442
362.31	9.41131
362.644	9.45068
362.978	9.4912
363.312	9.52589
363.646	9.52495
363.98	9.40543
364.314	9.55332
364.648	9.48116
364.982	9.53914
365.315	9.51921
365.649	9.48214
365.983	9.5506
366.316	9.58904
366.649	9.70171
366.983	9.68014
367.316	9.66026
367.649	9.64835
367.982	9.61232
368.315	9.66709
368.648	9.72139
368.981	9.76144
369.313	9.68683
369.646	9.78609
369.979	9.69699
370.311	9.68888
370.644	9.77546
370.976	9.81819
371.308	9.85712
371.641	9.77182
371.973	9.82076
372.305	9.85177
372.637	9.84442
372.969	9.84739
373.301	9.88493
373.632	9.87808
373.964	9.87466
374.296	9.92738
374.627	9.95802
374.959	9.76861
375.29	9.84631
375.621	9.89939
375.953	9.86605
376.284	9.819
376.615	9.85724
376.946	9.85457
377.277	9.89495
377.608	9.94421
377.939	9.97405
378.269	9.87806
378.6	9.90255
378.931	9.92859
379.261	9.99963
379.591	9.98812
379.922	9.99901
380.252	10.04553
380.582	10.15884
380.912	10.07209
381.242	10.09241
381.572	10.14353
381.902	10.10323
382.232	10.13989
382.562	10.08523
382.891	10.11551
383.221	10.15511
383.551	10.15456
383.88	10.18342
384.209	10.13329
384.539	10.2592
384.868	10.31133
385.197	10.29054
385.526	10.25374
385.855	10.30704
386.184	10.21376
386.513	10.2262
386.842	10.1929
387.17	10.31611
387.499	10.32452
387.828	10.32684
388.156	10.39207
388.484	10.26328
388.813	10.29222
389.141	10.25435
389.469	10.29733
389.797	10.33289
390.125	10.40118
390.453	10.44037
390.781	10.34856
391.109	10.44601
391.437	10.3344
391.764	10.48189
392.092	10.49056
392.419	10.41445
392.747	10.56116
393.074	10.49922
393.401	10.47645
393.729	10.56206
394.056	10.59633
394.383	10.52423
394.71	10.49664
395.037	10.53896
395.363	10.57573
395.69	10.54922
396.017	10.68198
396.344	10.67192
396.67	10.68594
396.997	10.66483
397.323	10.70297
397.649	10.70693
397.975	10.7701
398.302	10.74967
398.628	10.72163
398.954	10.78126
399.28	10.87645
399.606	10.84232
399.931	10.87994
400.257	10.85566
400.583	10.94208
400.908	11.02344
401.234	10.98511
401.559	11.11297
401.884	11.08384
402.21	11.08635
402.535	11.14605
402.86	11.13344
403.185	11.16669
403.51	11.1597
403.835	11.33751
404.16	11.2149
404.485	11.38172
404.809	11.27768
405.134	11.37885
405.458	11.29711
405.783	11.37541
406.107	11.55536
406.432	11.40749
406.756	11.49715
407.08	11.50789
407.404	11.53786
407.728	11.64215
408.052	11.63334
408.376	11.7929
408.7	11.69766
409.023	11.73425
409.347	11.76543
409.671	11.77695
409.994	11.84767
410.317	11.90352
410.641	11.98525
410.964	11.90555
411.287	11.97353
411.61	11.97715
411.933	11.97821
412.256	12.05316
412.579	12.02678
412.902	12.11065
413.225	12.14178
413.548	12.22757
413.87	12.24838
414.193	12.20983
414.515	12.22681
414.838	12.32379
415.16	12.36581
415.482	12.44337
415.804	12.48903
416.126	12.37512
416.448	12.52439
416.77	12.63143
417.092	12.67727
417.414	12.64774
417.736	12.66875
418.057	12.68051
418.379	12.65758
418.701	12.78731
419.022	12.72019
419.343	12.81294
419.665	12.7856
419.986	12.88783
420.307	12.87412
420.628	12.91322
420.949	12.96392
421.27	12.83333
421.591	13.01912
421.912	13.14296
422.232	13.06091
422.553	13.19064
422.873	13.09964
423.194	13.24817
423.514	13.27906
423.835	13.30888
424.155	13.40893
424.475	13.59143
424.795	13.62926
425.115	13.64132
425.435	13.56951
425.755	13.70684
426.075	13.75305
426.395	14.06415
426.714	13.74938
427.034	13.913
427.354	13.99304
427.673	13.91053
427.992	14.16543
428.312	14.10641
428.631	14.08719
428.95	14.17794
429.269	14.03831
429.588	14.04351
429.907	14.22596
430.226	14.19458
430.545	14.18349
430.864	14.30553
431.182	14.23392
431.501	14.44048
431.819	14.27493
432.138	14.42509
432.456	14.3097
432.774	14.66013
433.093	14.91335
433.411	14.80574
433.729	14.74129
434.047	14.64032
434.365	14.87645
434.683	14.87929
435	14.69115
435.318	14.89517
435.636	14.78003
435.953	14.94597
436.271	14.88329
436.588	14.92419
436.906	14.95579
437.223	14.88243
437.54	15.07577
437.857	15.20254
438.174	15.17516
438.491	15.13449
438.808	15.3032
439.125	15.15159
439.442	15.32275
439.758	15.32489
440.075	15.30022
440.392	15.23642
440.708	15.45334
441.024	15.28584
441.341	15.29959
441.657	15.35972
441.973	15.44118
442.289	15.33764
442.605	15.51401
442.921	15.45263
443.237	15.48635
443.553	15.58485
443.869	15.59491
444.184	15.5852
444.5	15.56111
444.816	15.66916
445.131	15.66589
445.446	15.58841
445.762	15.64793
446.077	15.62157
446.392	15.81066
446.707	15.8185
447.022	15.72628
447.337	15.86218
447.652	15.76459
447.967	15.89559
448.282	16.01197
448.596	15.98336
448.911	15.92174
449.225	15.91618
449.54	15.84513
449.854	15.86975
450.169	16.04456
450.483	15.95109
450.797	15.80605
451.111	15.89958
451.425	16.01323
451.739	15.8982
452.053	15.83496
452.367	15.90344
452.68	16.16631
452.994	16.02641
453.308	16.13798
453.621	15.81548
453.935	16.005
454.248	16.08253
454.561	16.10542
454.874	16.02492
455.188	16.15743
455.501	16.23132
455.814	16.12583
456.127	16.20651
456.44	16.10409
456.752	16.02233
457.065	16.00226
457.378	15.95658
457.69	15.89289
458.003	15.91725
458.315	16.01798
458.628	15.98718
458.94	15.92101
459.252	16.04159
459.564	16.00987
459.876	15.91216
460.188	15.90171
460.5	16.06989
460.812	16.05282
461.124	15.87451
461.436	15.92567
461.747	15.97136
462.059	16.01583
462.37	15.90128
462.682	15.97525
462.993	16.07781
463.304	15.94122
463.616	15.80465
463.927	15.82372
464.238	16.0221
464.549	16.00368
464.86	15.93386
465.171	15.99773
465.481	15.92624
465.792	15.94154
466.103	16.05677
466.413	15.94168
466.724	15.89233
467.034	15.89101
467.345	15.97595
467.655	15.82783
467.965	15.83445
468.275	16.01085
468.585	15.89536
468.895	15.89168
469.205	16.08539
469.515	15.85859
469.825	15.8332
470.135	15.91632
470.444	15.9147
470.754	16.00555
471.063	15.96541
471.373	15.97274
471.682	16.00493
471.991	15.97002
472.301	16.11624
472.61	16.05347
472.919	15.98201
473.228	15.83098
473.537	15.8552
473.846	15.89836
474.155	15.91734
474.463	16.12172
474.772	16.02352
475.08	16.06215
475.389	15.95989
475.697	16.02251
476.006	16.00984
476.314	15.93861
476.622	15.95173
476.93	16.08438
477.239	15.98572
477.547	15.90732
477.855	16.08754
478.162	15.95185
478.47	16.02989
478.778	16.07017
479.086	15.91057
479.393	15.94757
479.701	16.13199
480.008	15.93813
480.315	16.0874
480.623	16.04977
480.93	15.92793
481.237	16.19689
481.544	16.02816
481.851	16.09429
482.158	16.09777
482.465	16.02812
482.772	15.93729
483.079	16.04293
483.385	16.21903
483.692	16.27552
483.998	16.01789
484.305	16.06331
484.611	16.21215
484.918	16.23128
485.224	16.19189
485.53	16.12301
485.836	16.14336
486.142	16.0148
486.448	16.08428
486.754	16.14548
487.06	16.02823
487.366	16.24318
487.671	16.29844
487.977	16.16313
488.282	16.21706
488.588	16.1915
488.893	16.26381
489.199	16.28819
489.504	16.18771
489.809	16.21293
490.114	16.33763
490.419	16.41506
490.724	16.34266
491.029	16.27213
491.334	16.25939
491.639	16.35557
491.943	16.47504
492.248	16.41081
492.553	16.50536
492.857	16.40811
493.162	16.37625
493.466	16.55278
493.77	16.61645
494.074	16.59144
494.378	16.52132
494.683	16.70493
494.987	16.6933
495.29	16.7372
495.594	16.6703
495.898	16.75613
496.202	16.83179
496.505	16.7265
496.809	16.85977
497.113	16.94602
497.416	16.84115
497.719	16.95476
498.023	16.95759
498.326	17.00248
498.629	17.15498
498.932	17.08643
499.235	17.08971
499.538	17.18643
499.841	17.31406
500.144	17.28615
500.446	17.21489
500.749	17.31166
501.052	17.36144
501.354	17.27533
501.657	17.40548
501.959	17.49497
502.261	17.53588
502.564	17.60526
502.866	17.7077
503.168	17.75789
503.47	17.89986
503.772	17.82669
504.074	18.00632
504.376	17.9526
504.677	17.96168
504.979	18.11134
505.281	18.26735
505.582	18.2536
505.884	18.3853
506.185	18.19251
506.486	18.36912
506.788	18.47069
507.089	18.56228
507.39	18.66833
507.691	18.84381
507.992	18.80708
508.293	18.80386
508.594	18.97625
508.895	19.01343
509.195	19.19034
509.496	19.08531
509.797	19.29937
510.097	19.35138
510.398	19.45682
510.698	19.45767
510.998	19.59796
511.298	19.64815
511.599	19.65369
511.899	19.8313
512.199	20.009
512.499	20.12109
512.799	20.2953
513.098	20.37019
513.398	20.3778
513.698	20.53242
513.997	20.60257
514.297	20.718
514.596	21.09359
514.896	20.9489
515.195	21.22373
515.494	21.36711
515.794	21.48005
516.093	21.46538
516.392	21.59738
516.691	21.87929
516.99	22.0745
517.288	22.18391
517.587	22.12117
517.886	22.47354
518.185	22.54958
518.483	22.68795
518.782	22.84045
519.08	23.03268
519.378	23.27401
519.677	23.10444
519.975	23.44997
520.273	23.73765
520.571	23.59424
520.869	23.84753
521.167	23.99216
521.465	24.09126
521.763	24.16914
522.061	24.41341
522.358	24.64168
522.656	24.67576
522.953	24.83018
523.251	25.01643
523.548	25.14923
523.846	25.18354
524.143	25.43738
524.44	25.50612
524.737	25.63801
525.034	25.63137
525.331	25.7553
525.628	25.85511
525.925	25.93771
526.222	26.11932
526.518	26.10337
526.815	26.49821
527.112	26.29921
527.408	26.57085
527.705	26.59576
528.001	26.70994
528.297	26.8047
528.593	26.74217
528.89	26.9662
529.186	26.90704
529.482	26.90878
529.778	26.94105
530.074	27.10311
530.369	27.07957
530.665	27.17397
530.961	27.11695
531.256	27.26346
531.552	27.29509
531.847	27.35549
532.143	27.13875
532.438	27.27114
532.733	27.16158
533.029	27.2943
533.324	27.192
533.619	27.1117
533.914	27.22217
534.209	27.1995
534.504	27.15298
534.798	26.99491
535.093	27.00919
535.388	26.90009
535.682	26.86676
535.977	26.97641
536.271	26.97117
536.566	26.95768
536.86	26.96129
537.154	26.82941
537.448	26.95509
537.742	26.78531
538.037	26.79995
538.33	26.73464
538.624	26.8332
538.918	26.76673
539.212	26.77546
539.506	26.62689
539.799	26.77155
540.093	26.86042
540.386	26.80402
540.68	26.87306
540.973	26.98313
541.266	26.97187
541.56	26.74365
541.853	26.77958
542.146	26.86048
542.439	26.89874
542.732	26.9949
543.025	27.14484
543.318	27.12294
543.61	27.05087
543.903	27.23837
544.196	27.33309
544.488	27.35711
544.781	27.3373
545.073	27.46978
545.365	27.38696
545.658	27.56027
545.95	27.65988
546.242	27.78836
546.534	27.81861
546.826	27.87319
547.118	28.07944
547.41	28.13068
547.702	28.17445
547.993	28.18653
548.285	28.37317
548.577	28.53304
548.868	28.5547
549.16	28.59065
549.451	28.67404
549.742	28.68457
550.034	28.77609
550.325	28.99602
550.616	29.01254
550.907	29.057
551.198	29.14101
551.489	29.24502
551.78	29.37232
552.07	29.30812
552.361	29.43587
552.652	29.59599
552.942	29.72964
553.233	29.81378
553.523	29.85482
553.814	29.87183
554.104	29.9832
554.394	29.89703
554.684	30.10183
554.975	29.96825
555.265	30.2896
555.555	30.16648
555.845	30.20283
556.134	30.17956
556.424	30.35876
556.714	30.26097
557.003	30.45338
557.293	30.35374
557.583	30.51101
557.872	30.45893
558.161	30.54016
558.451	30.47396
558.74	30.53945
559.029	30.72286
559.318	30.51132
559.607	30.61818
559.896	30.59494
560.185	30.55971
560.474	30.56066
560.763	30.67148
561.051	30.6075
561.34	30.66232
561.629	30.69414
561.917	30.53762
562.205	30.63985
562.494	30.65141
562.782	30.61341
563.07	30.50174
563.359	30.55667
563.647	30.49979
563.935	30.52219
564.223	30.56829
564.51	30.66787
564.798	30.4915
565.086	30.5077
565.374	30.478
565.661	30.51402
565.949	30.4419
566.236	30.43766
566.524	30.27466
566.811	30.35262
567.099	30.42742
567.386	30.38351
567.673	30.28402
567.96	30.31422
568.247	30.30712
568.534	30.31697
568.821	30.29286
569.108	30.2136
569.394	30.17111
569.681	30.19946
569.968	30.06287
570.254	30.19155
570.541	30.06424
570.827	30.14291
571.114	30.1913
571.4	30.01093
571.686	29.93815
571.972	30.0416
572.258	29.90029
572.544	29.9871
572.83	29.87648
573.116	29.9999
573.402	29.89475
573.688	30.04235
573.973	29.80725
574.259	29.85865
574.545	29.83717
574.83	29.9716
575.116	29.82155
575.401	29.94752
575.686	29.7627
575.971	29.75618
576.257	29.81853
576.542	29.82327
576.827	29.76359
577.112	29.76609
577.397	29.81394
577.681	29.65096
577.966	29.70846
578.251	29.71514
578.536	29.72325
578.82	29.64662
579.105	29.64356
579.389	29.54944
579.673	29.59605
579.958	29.62986
580.242	29.56582
580.526	29.53837
580.81	29.48681
581.094	29.48132
581.378	29.43113
581.662	29.61934
581.946	29.4695
582.23	29.39377
582.513	29.43509
582.797	29.29978
583.081	29.4358
583.364	29.36612
583.648	29.32087
583.931	29.42256
584.214	29.24775
584.498	29.13233
584.781	29.20538
585.064	29.14576
585.347	29.14534
585.63	29.20512
585.913	29.10534
586.196	29.0493
586.478	29.10602
586.761	29.00028
587.044	29.03272
587.326	28.93102
587.609	28.82675
587.891	28.78282
588.174	28.77379
588.456	28.82871
588.738	28.7768
589.02	28.73898
589.303	28.7075
589.585	28.51742
589.867	28.60075
590.149	28.53399
590.43	28.55461
590.712	28.45318
590.994	28.44501
591.276	28.43195
591.557	28.40858
591.839	28.31223
592.12	28.29202
592.402	28.34213
592.683	28.31839
592.964	28.26116
593.245	28.27006
593.527	28.07426
593.808	28.10975
594.089	28.0722
594.37	28.15602
594.65	27.98463
594.931	27.90448
595.212	27.89349
595.493	27.84117
595.773	27.70925
596.054	27.66914
596.334	27.72679
596.615	27.57166
596.895	27.66681
597.175	27.53933
597.456	27.42484
597.736	27.62285
598.016	27.31129
598.296	27.32675
598.576	27.23412
598.856	27.31247
599.136	27.24076
599.415	27.09468
599.695	27.10884
599.975	27.00082
600.254	27.01836
600.534	27.00326
600.813	26.80839
601.093	26.74697
601.372	26.70194
601.651	26.69157
601.93	26.57606
602.209	26.59266
602.488	26.55661
602.767	26.49411
603.046	26.28133
603.325	26.39083
603.604	26.31053
603.883	26.30102
604.161	26.10055
604.44	26.09433
604.718	26.00317
604.997	26.02718
605.275	25.8671
605.554	25.89858
605.832	25.77786
606.11	25.70245
606.388	25.71974
606.666	25.63385
606.944	25.57172
607.222	25.43203
607.5	25.36767
607.778	25.43607
608.056	25.25785
608.333	25.2614
608.611	25.34001
608.889	25.23055
609.166	25.13796
609.444	25.05578
609.721	25.01549
609.998	24.99192
610.275	24.94222
610.553	24.90246
610.83	24.75199
611.107	24.81415
611.384	24.7761
611.661	24.72239
611.937	24.64564
612.214	24.57967
612.491	24.53885
612.768	24.58273
613.044	24.49728
613.321	24.41695
613.597	24.45742
613.874	24.44561
614.15	24.45782
614.426	24.42619
614.702	24.30976
614.978	24.32189
615.255	24.37251
615.531	24.274
615.806	24.20539
616.082	24.19572
616.358	24.27331
616.634	24.25542
616.91	24.27776
617.185	24.21714
617.461	24.09516
617.736	24.14065
618.012	24.18014
618.287	24.10658
618.562	24.12359
618.838	24.15572
619.113	24.09048
619.388	24.19062
619.663	24.13468
619.938	24.10467
620.213	24.26177
620.488	24.12163
620.762	24.09699
621.037	24.2122
621.312	24.16726
621.586	24.13481
621.861	24.17319
622.135	24.24558
622.41	24.19941
622.684	24.20015
622.958	24.27747
623.233	24.31496
623.507	24.23942
623.781	24.3753
624.055	24.4012
624.329	24.33952
624.603	24.26524
624.876	24.33245
625.15	24.2917
625.424	24.44717
625.698	24.42273
625.971	24.51076
626.245	24.4915
626.518	24.45441
626.791	24.55567
627.065	24.59675
627.338	24.60124
627.611	24.65462
627.884	24.64552
628.157	24.60178
628.43	24.69473
628.703	24.60729
628.976	24.57151
629.249	24.70193
629.522	24.66175
629.794	24.684
630.067	24.63804
630.339	24.61637
630.612	24.8171
630.884	24.56971
631.157	24.70587
631.429	24.60378
631.701	24.563
631.973	24.52113
632.245	24.55696
632.518	24.54294
632.789	24.51252
633.061	24.62053
633.333	24.4283
633.605	24.43985
633.877	24.37067
634.148	24.2962
634.42	24.36579
634.691	24.23881
634.963	24.15401
635.234	24.10641
635.506	24.0848
635.777	24.06317
636.048	23.99201
636.319	23.84411
636.59	23.83173
636.861	23.74035
637.132	23.68233
637.403	23.60389
637.674	23.54971
637.945	23.429
638.216	23.51586
638.486	23.26146
638.757	23.09072
639.027	23.03516
639.298	22.94268
639.568	22.86799
639.838	22.81893
640.109	22.7206
640.379	22.56681
640.649	22.4722
640.919	22.35621
641.189	22.32409
641.459	22.17395
641.729	22.13683
641.999	21.98264
642.269	21.89616
642.538	21.83979
642.808	21.75415
643.077	21.76305
643.347	21.49378
643.616	21.52392
643.886	21.41889
644.155	21.33656
644.424	21.28289
644.693	21.12533
644.963	21.11926
645.232	21.01923
645.501	20.96087
645.77	20.78718
646.038	20.79407
646.307	20.64286
646.576	20.60409
646.845	20.56627
647.113	20.46227
647.382	20.45423
647.65	20.39902
647.919	20.3211
648.187	20.31124
648.455	20.19743
648.724	20.10087
648.992	20.13525
649.26	20.13043
649.528	19.99299
649.796	20.04106
650.064	19.92463
650.332	19.95597
650.6	19.82384
650.867	19.88479
651.135	19.84107
651.403	19.84988
651.67	19.7413
651.938	19.79784
652.205	19.74512
652.473	19.69578
652.74	19.7168
653.007	19.72513
653.274	19.57654
653.541	19.53636
653.808	19.49109
654.075	19.52405
654.342	19.37731
654.609	19.46135
654.876	19.37937
655.143	19.33239
655.409	19.31212
655.676	19.29343
655.943	19.28054
656.209	19.16464
656.475	19.13687
656.742	19.1085
657.008	19.03716
657.274	18.93708
657.541	18.88844
657.807	18.88307
658.073	18.82679
658.339	18.79352
658.605	18.7516
658.871	18.61811
659.136	18.57342
659.402	18.49703
659.668	18.42204
659.933	18.3648
660.199	18.3383
660.464	18.24814
660.73	18.20599
660.995	18.17996
661.261	18.02185
661.526	18.03566
661.791	17.93108
662.056	17.87276
662.321	17.80777
662.586	17.72727
662.851	17.65508
663.116	17.58346
663.381	17.59855
663.646	17.47186
663.91	17.44197
664.175	17.36476
664.439	17.33714
664.704	17.23895
664.968	17.14426
665.233	17.20996
665.497	17.17553
665.761	17.06921
666.025	17.06583
666.29	17.03979
666.554	16.90653
666.818	16.87033
667.082	16.87613
667.345	16.86311
667.609	16.80976
667.873	16.78565
668.137	16.71639
668.4	16.74166
668.664	16.64461
668.927	16.65045
669.191	16.63778
669.454	16.61302
669.718	16.58528
669.981	16.53974
670.244	16.49119
670.507	16.52798
670.77	16.58468
671.033	16.52973
671.296	16.55772
671.559	16.41981
671.822	16.47963
672.085	16.5043
672.348	16.46915
672.61	16.50349
672.873	16.49952
673.135	16.52868
673.398	16.5422
673.66	16.44077
673.922	16.45746
674.185	16.42368
674.447	16.47246
674.709	16.54826
674.971	16.59424
675.233	16.54728
675.495	16.62028
675.757	16.57655
676.019	16.63486
676.281	16.60619
676.542	16.66732
676.804	16.76217
677.066	16.73373
677.327	16.7463
677.589	16.7967
677.85	16.75939
678.112	16.93661
678.373	16.91768
678.634	16.94398
678.895	16.92702
679.156	17.08033
679.417	17.10622
679.678	17.17178
679.939	17.21914
680.2	17.2914
680.461	17.35042
680.722	17.43406
680.982	17.56714
681.243	17.63056
681.504	17.68179
681.764	17.71571
682.025	17.82414
682.285	17.97152
682.545	18.05041
682.806	18.22958
683.066	18.36226
683.326	18.45785
683.586	18.59084
683.846	18.70738
684.106	18.93294
684.366	19.06468
684.626	19.19193
684.885	19.46513
685.145	19.61319
685.405	19.80595
685.664	20.02065
685.924	20.23776
686.183	20.55344
686.443	20.74511
686.702	21.02122
686.961	21.23897
687.221	21.48685
687.48	21.78319
687.739	22.08898
687.998	22.43186
688.257	22.7307
688.516	23.01776
688.775	23.47392
689.033	23.8073
689.292	24.14587
689.551	24.56304
689.809	24.95283
690.068	25.39816
690.326	25.7621
690.585	26.26848
690.843	26.67544
691.102	27.14445
691.36	27.69407
691.618	28.08812
691.876	28.66572
692.134	29.12262
692.392	29.56142
692.65	30.1451
692.908	30.75719
693.166	31.32142
693.424	31.84307
693.681	32.41678
693.939	33.01443
694.197	33.64865
694.454	34.21298
694.712	34.79188
694.969	35.56435
695.226	36.13864
695.484	36.86781
695.741	37.47765
695.998	38.02489
696.255	38.70746
696.512	39.3542
696.769	39.99522
697.026	40.63407
697.283	41.39169
697.54	42.03368
697.796	42.70284
698.053	43.31978
698.31	44.267
698.566	44.80765
698.823	45.53147
699.079	46.13151
699.336	46.72897
699.592	47.5201
699.848	48.20219
700.104	49.08559
700.361	49.66488
700.617	50.30752
700.873	51.11576
701.129	51.92832
701.384	52.38228
701.64	53.22444
701.896	53.74183
702.152	54.41991
702.407	55.23607
702.663	55.87192
702.919	56.53689
703.174	57.11202
703.43	57.81359
703.685	58.41319
703.94	59.043
704.195	59.74895
704.451	60.42756
704.706	60.98055
704.961	61.52723
705.216	62.13514
705.471	62.73955
705.726	63.52542
705.98	63.98486
706.235	64.43401
706.49	65.15463
706.745	65.86238
706.999	66.23477
707.254	66.75147
707.508	67.41552
707.762	68.10073
708.017	68.44549
708.271	69.13183
708.525	69.53711
708.779	69.99927
709.034	70.50825
709.288	70.87151
709.542	71.38179
709.796	72.08646
710.049	72.31158
710.303	73.0543
710.557	73.27212
710.811	74.05776
711.064	74.27735
711.318	74.66337
711.571	75.31514
711.825	75.49776
712.078	75.83612
712.331	76.41047
712.585	76.77803
712.838	77.23103
713.091	77.48744
713.344	77.87995
713.597	78.29352
713.85	78.61586
714.103	79.06551
714.356	79.47297
714.609	79.68678
714.862	80.1383
715.114	80.49413
715.367	80.73149
715.619	81.3659
715.872	81.55694
716.124	81.72123
716.377	82.24897
716.629	82.46764
716.881	82.63307
717.133	83.03215
717.386	83.26516
717.638	83.47434
717.89	83.80593
718.142	84.0953
718.394	84.22126
718.645	84.72983
718.897	84.96156
719.149	85.091
719.401	85.27031
719.652	85.50954
719.904	85.85232
720.155	86.09036
720.407	86.35437
720.658	86.52969
720.909	86.73999
721.161	87.17293
721.412	87.29936
721.663	87.44393
721.914	87.7648
722.165	87.80227
722.416	88.02378
722.667	88.25219
722.918	88.54536
723.169	88.92323
723.419	89.03223
723.67	89.13097
723.921	89.12365
724.171	89.50656
724.422	89.57004
724.672	89.7558
724.922	90.08368
725.173	90.099
725.423	90.36784
725.673	90.61
725.923	90.53348
726.173	90.96669
726.423	91.04748
726.673	91.08829
726.923	91.40067
727.173	91.47026
727.423	91.4407
727.673	91.64605
727.922	92.11501
728.172	91.98824
728.421	92.44393
728.671	92.47098
728.92	92.65968
729.17	92.52265
729.419	92.71783
729.668	92.78749
729.918	93.01764
730.167	93.04097
730.416	93.1123
730.665	93.43478
730.914	93.41379
731.163	93.90299
731.411	93.83337
731.66	93.9773
731.909	93.95682
732.158	94.04688
732.406	94.17498
732.655	94.52839
732.903	94.66575
733.152	94.77358
733.4	94.65823
733.648	94.81508
733.897	95.00921
734.145	95.04913
734.393	95.13889
734.641	95.28022
734.889	95.47719
735.137	95.45006
735.385	95.62256
735.633	95.74218
735.881	96.04905
736.129	95.93856
736.376	95.85042
736.624	96.21557
736.871	96.34614
737.119	96.27798
737.366	96.24824
737.614	96.46365
737.861	96.47224
738.108	96.76445
738.356	96.85838
738.603	96.58955
738.85	97.08543
739.097	96.9629
739.344	96.82049
739.591	97.2215
739.838	97.43813
740.084	97.14927
740.331	97.56867
740.578	97.28442
740.825	97.73979
741.071	97.65015
741.318	97.70532
741.564	97.86387
741.811	98.00648
742.057	97.80721
742.303	98.17722
742.549	98.08954
742.796	98.24792
743.042	98.27761
743.288	98.37547
743.534	98.12837
743.78	98.69158
744.026	98.4533
744.271	98.5658
744.517	98.34339
744.763	98.63282
745.009	98.60062
745.254	98.57661
745.5	99.05849
745.745	98.86083
745.991	98.97298
746.236	99.36045
746.481	99.2095
746.727	99.34902
746.972	99.17476
747.217	99.22693
747.462	99.50516
747.707	99.27767
747.952	99.36221
748.197	99.65471
748.442	99.62755
748.686	99.54925
748.931	99.58973
749.176	99.77627
749.421	99.84894
749.665	99.82994
749.91	99.8515
750.154	100.00945
750.398	99.90878
750.643	100.02514
750.887	100.22381
751.131	100.17172
751.375	100.41154
751.62	100.37035
751.864	100.27016
752.108	100.4121
752.351	100.48872
752.595	100.5002
752.839	100.48721
753.083	100.41283
753.327	100.60434
753.57	100.72084
753.814	100.64781
754.057	100.6845
754.301	100.89483
754.544	101.0101
754.788	101.00936
755.031	100.71676
755.274	100.88387
755.517	101.02506
755.761	101.05569
756.004	101.0234
756.247	101.19617
756.49	101.12743
756.732	101.27486
756.975	101.34952
757.218	101.25042
757.461	101.34326
757.704	101.22605
757.946	101.43824
758.189	101.61696
758.431	101.58651
758.674	101.57458
758.916	101.64983
759.158	101.7366
759.401	101.75123
759.643	101.82486
759.885	101.90774
760.127	101.91243
760.369	101.7288
760.611	101.84147
760.853	101.8553
761.095	102.08919
761.337	102.03884
761.579	102.13353
761.82	102.02382
762.062	102.01434
762.304	102.09129
762.545	102.29659
762.787	102.11024
763.028	102.1872
763.269	102.23575
763.511	102.12109
763.752	102.18203
763.993	102.46357
764.234	102.47601
764.475	102.3135
764.716	102.47458
764.957	102.28434
765.198	102.69651
765.439	102.49012
765.68	102.7581
765.921	102.97489
766.161	102.75592
766.402	102.899
766.643	102.65603
766.883	102.68686
767.124	102.92695
767.364	102.85878
767.604	102.83496
767.845	102.86588
768.085	103.22289
768.325	102.68715
768.565	103.05018
768.805	102.8158
769.045	103.05491
769.285	103.07746
769.525	103.19178
769.765	103.12091
770.005	103.16884
770.244	103.1924
770.484	103.44741
770.724	103.36434
770.963	103.34647
771.203	103.29286
771.442	103.49467
771.682	103.48327
771.921	103.51951
772.16	103.46689
772.399	103.4865
772.639	103.59193
772.878	103.82094
773.117	103.70802
773.356	103.60319
773.595	103.58917
773.834	103.81726
774.072	103.63205
774.311	103.97288
774.55	103.99543
774.789	103.93105
775.027	104.08381
775.266	103.93275
775.504	104.26364
775.743	104.16247
775.981	104.18168
776.219	104.04802
776.458	104.13719
776.696	104.40958
776.934	104.30086
777.172	104.2978
777.41	104.32115
777.648	104.15318
777.886	104.69266
778.124	104.44941
778.362	104.76412
778.6	104.65215
778.837	104.53486
779.075	104.69591
779.313	104.55211
779.55	104.61487
779.788	104.66105
780.025	104.85159
780.262	104.8086
780.5	104.59958
780.737	104.90331
780.974	104.99138
781.211	105.01037
781.449	104.8319
781.686	104.96673
781.923	104.88478
782.159	105.17708
782.396	105.02256
782.633	105.17189
782.87	105.2247
783.107	105.17902
783.343	105.19523
783.58	105.13817
783.816	104.959
784.053	105.35274
784.289	105.14116
784.526	105.29049
784.762	105.64055
784.998	105.45497
785.235	105.22589
785.471	105.35861
785.707	105.48668
785.943	105.49793
786.179	105.57284
786.415	105.62901
786.651	105.71342
786.887	105.52395
787.122	105.88877
787.358	105.75256
787.594	105.71708
787.829	105.5706
788.065	105.87565
788.3	105.47419
788.536	105.60019
788.771	105.91099
789.006	105.68803
789.242	105.92701
789.477	105.89447
789.712	106.10556
789.947	106.23593
790.182	105.91733
790.417	106.23092
790.652	106.10635
790.887	106.02426
791.122	106.23319
791.357	106.42658
791.591	106.18543
791.826	106.30541
792.061	106.3797
792.295	106.73368
792.53	106.26071
792.764	105.90174
792.999	106.46484
793.233	106.5063
793.467	106.33193
793.701	106.67318
793.936	106.53532
794.17	106.52944
794.404	106.39338
794.638	106.74774
794.872	106.81581
795.106	106.81063
795.34	106.97554
795.573	106.80937
795.807	106.76498
796.041	106.9302
796.274	106.85912
796.508	106.90495
796.741	106.99551
796.975	107.29576
797.208	107.1936
797.442	106.84515
797.675	107.25278
797.908	106.9963
798.141	107.15974
798.375	107.21789
798.608	107.19099
798.841	107.36122
799.074	107.47816
799.306	107.09211
799.539	107.50573
799.772	107.78356
800.005	107.36764
800.238	107.6556
800.47	107.99461
800.703	107.42992
800.935	107.54301
801.168	107.71339
801.4	107.68555
801.633	107.67316
801.865	107.74093
802.097	107.40313
802.329	107.8688
802.562	107.94874
802.794	107.91505
803.026	108.35742
803.258	107.71905
803.49	108.10073
803.721	107.8185
803.953	107.90967
804.185	107.81408
804.417	108.05681
804.648	108.20253
804.88	108.49436
805.112	108.12514
805.343	107.91552
805.575	108.13931
805.806	108.02936
806.037	108.22378
806.269	107.98024
806.5	108.3281
806.731	108.44146
806.962	108.38498
807.193	108.12386
807.424	108.54401
807.655	108.52098
807.886	113.66228
808.117	72.10922
808.348	23.15811
808.578	42.0292
